0;-0.013631
0.001;-0.013467
0.002;-0.013631
0.003;-0.012481
0.004;-0.011494
0.005;-0.011823
0.006;-0.011988
0.007;-0.01281
0.008;-0.013796
0.009;-0.014453
0.01;-0.014453
0.011;-0.014289
0.012;-0.014947
0.013;-0.016097
0.014;-0.014289
0.015;-0.014618
0.016;-0.014289
0.017;-0.014947
0.018;-0.013303
0.019;-0.01396
0.02;-0.012974
0.021;-0.01133
0.022;-0.012316
0.023;-0.01281
0.024;-0.013467
0.025;-0.012481
0.026;-0.014125
0.027;-0.014125
0.028;-0.013796
0.029;-0.014782
0.03;-0.013631
0.031;-0.012645
0.032;-0.013796
0.033;-0.01281
0.034;-0.013138
0.035;-0.01281
0.036;-0.012152
0.037;-0.011494
0.038;-0.01133
0.039;-0.012645
0.04;-0.012645
0.041;-0.013796
0.042;-0.012645
0.043;-0.01396
0.044;-0.01396
0.045;-0.014782
0.046;-0.014947
0.047;-0.014618
0.048;-0.013796
0.049;-0.015111
0.05;-0.013631
0.051;-0.014125
0.052;-0.013467
0.053;-0.011494
0.054;-0.011166
0.055;-0.010179
0.056;-0.013303
0.057;-0.011823
0.058;-0.01396
0.059;-0.014618
0.06;-0.015604
0.061;-0.014618
0.062;-0.01544
0.063;-0.014782
0.064;-0.016097
0.065;-0.014618
0.066;-0.014289
0.067;-0.013138
0.068;-0.01281
0.069;-0.01133
0.07;-0.010508
0.071;-0.010015
0.072;-0.009851
0.073;-0.010508
0.074;-0.011166
0.075;-0.010015
0.076;-0.011494
0.077;-0.011001
0.078;-0.010673
0.079;-0.011494
0.08;-0.010837
0.081;-0.010508
0.082;-0.009357
0.083;-0.009522
0.084;-0.009029
0.085;-0.007549
0.086;-0.007549
0.087;-0.00607
0.088;-0.006234
0.089;-0.005576
0.09;-0.007056
0.091;-0.006727
0.092;-0.007878
0.093;-0.006398
0.094;-0.006727
0.095;-0.007549
0.096;-0.006563
0.097;-0.00722
0.098;-0.007549
0.099;-0.005576
0.1;-0.004097
0.101;-0.003933
0.102;-0.002782
0.103;-0.002617
0.104;-0.001138
0.105;0.000506
0.106;0.000342
0.107;-0.00048
0.108;0.000835
0.109;-0.001138
0.11;1.27E-05
0.111;-0.00048
0.112;0.000177
0.113;0.00067
0.114;0.002479
0.115;0.002479
0.116;0.003794
0.117;0.002807
0.118;0.005602
0.119;0.006259
0.12;0.007739
0.121;0.009712
0.122;0.009218
0.123;0.008561
0.124;0.009218
0.125;0.009712
0.126;0.009218
0.127;0.007739
0.128;0.008232
0.129;0.008397
0.13;0.008068
0.131;0.008561
0.132;0.008068
0.133;0.009383
0.134;0.010534
0.135;0.008725
0.136;0.009876
0.137;0.01004
0.138;0.009383
0.139;0.007575
0.14;0.00741
0.141;0.006424
0.142;0.005602
0.143;0.002972
0.144;0.003794
0.145;0.003465
0.146;0.00215
0.147;0.002807
0.148;0.000835
0.149;0.000342
0.15;0.001328
0.151;0.000999
0.152;0.001328
0.153;0.002807
0.154;0.001985
0.155;0.00215
0.156;0.000835
0.157;1.27E-05
0.158;-0.002124
0.159;-0.002289
0.16;-0.003933
0.161;-0.003768
0.162;-0.00607
0.163;-0.006398
0.164;-0.004755
0.165;-0.003111
0.166;-0.005576
0.167;-0.005905
0.168;-0.004755
0.169;-0.004426
0.17;-0.004755
0.171;-0.00459
0.172;-0.005741
0.173;-0.00722
0.174;-0.007056
0.175;-0.009522
0.176;-0.008864
0.177;-0.010015
0.178;-0.010015
0.179;-0.010508
0.18;-0.012152
0.181;-0.011494
0.182;-0.01133
0.183;-0.010673
0.184;-0.011166
0.185;-0.009851
0.186;-0.010015
0.187;-0.009029
0.188;-0.008864
0.189;-0.010508
0.19;-0.011166
0.191;-0.010837
0.192;-0.012316
0.193;-0.014125
0.194;-0.013796
0.195;-0.014782
0.196;-0.014947
0.197;-0.014125
0.198;-0.013138
0.199;-0.012974
0.2;-0.014782
0.201;-0.01396
0.202;-0.012645
0.203;-0.011988
0.204;-0.011823
0.205;-0.011659
0.206;-0.012316
0.207;-0.013138
0.208;-0.013631
0.209;-0.014453
0.21;-0.015604
0.211;-0.01544
0.212;-0.016426
0.213;-0.015604
0.214;-0.016262
0.215;-0.016919
0.216;-0.016919
0.217;-0.016426
0.218;-0.014289
0.219;-0.01544
0.22;-0.015769
0.221;-0.015604
0.222;-0.017577
0.223;-0.017906
0.224;-0.017741
0.225;-0.019221
0.226;-0.020865
0.227;-0.022015
0.228;-0.022508
0.229;-0.023824
0.23;-0.026289
0.231;-0.027769
0.232;-0.030892
0.233;-0.030728
0.234;-0.033687
0.235;-0.035002
0.236;-0.03681
0.237;-0.037468
0.238;-0.039276
0.239;-0.042071
0.24;-0.044372
0.241;-0.044208
0.242;-0.04618
0.243;-0.046838
0.244;-0.047824
0.245;-0.047002
0.246;-0.042728
0.247;-0.038947
0.248;-0.035002
0.249;-0.02892
0.25;-0.021522
0.251;-0.011988
0.252;-0.003439
0.253;0.009383
0.254;0.019575
0.255;0.030425
0.256;0.042918
0.257;0.055905
0.258;0.068563
0.259;0.079905
0.26;0.092892
0.261;0.102755
0.262;0.11755
0.263;0.129715
0.264;0.142044
0.265;0.152894
0.266;0.161935
0.267;0.169497
0.268;0.178538
0.269;0.181004
0.27;0.182648
0.271;0.181497
0.272;0.174264
0.273;0.164237
0.274;0.149771
0.275;0.136291
0.276;0.117715
0.277;0.104564
0.278;0.088947
0.279;0.075796
0.28;0.065111
0.281;0.051959
0.282;0.044891
0.283;0.036343
0.284;0.027794
0.285;0.022041
0.286;0.014972
0.287;0.009876
0.288;0.00478
0.289;-0.001138
0.29;-0.005412
0.291;-0.008207
0.292;-0.011988
0.293;-0.01396
0.294;-0.016097
0.295;-0.018728
0.296;-0.0207
0.297;-0.019714
0.298;-0.023002
0.299;-0.021029
0.3;-0.020207
0.301;-0.020865
0.302;-0.020207
0.303;-0.019878
0.304;-0.016262
0.305;-0.01659
0.306;-0.016426
0.307;-0.01544
0.308;-0.01544
0.309;-0.011494
0.31;-0.012645
0.311;-0.011166
0.312;-0.010179
0.313;-0.007385
0.314;-0.004755
0.315;-0.004261
0.316;-0.002946
0.317;-0.002453
0.318;-0.002124
0.319;0.000177
0.32;0.000506
0.321;0.001821
0.322;0.000999
0.323;-0.000152
0.324;-0.000645
0.325;-0.001302
0.326;-0.002124
0.327;-0.003111
0.328;-0.003275
0.329;-0.002946
0.33;-0.00459
0.331;-0.005248
0.332;-0.00459
0.333;-0.00459
0.334;-0.005248
0.335;-0.00459
0.336;-0.003439
0.337;-0.00196
0.338;-0.001796
0.339;-0.003439
0.34;-0.00459
0.341;-0.005905
0.342;-0.004919
0.343;-0.00722
0.344;-0.006563
0.345;-0.006892
0.346;-0.00607
0.347;-0.00607
0.348;-0.006563
0.349;-0.005083
0.35;-0.004426
0.351;-0.003439
0.352;-0.003604
0.353;-0.002617
0.354;-0.002124
0.355;-0.001467
0.356;-0.002782
0.357;-0.003111
0.358;-0.003111
0.359;-0.003111
0.36;-0.003275
0.361;-0.003275
0.362;-0.003111
0.363;-0.002289
0.364;-0.002782
0.365;-0.002289
0.366;-0.001631
0.367;-0.000809
0.368;0.000177
0.369;0.001328
0.37;0.002643
0.371;0.002972
0.372;0.002972
0.373;0.002807
0.374;0.002479
0.375;0.001985
0.376;0.002643
0.377;0.00215
0.378;0.003794
0.379;0.002314
0.38;0.002807
0.381;0.00478
0.382;0.005273
0.383;0.006917
0.384;0.007739
0.385;0.008232
0.386;0.009383
0.387;0.011027
0.388;0.012013
0.389;0.011356
0.39;0.01152
0.391;0.011191
0.392;0.010862
0.393;0.011191
0.394;0.012835
0.395;0.011684
0.396;0.012671
0.397;0.014808
0.398;0.014479
0.399;0.016123
0.4;0.017438
0.401;0.018424
0.402;0.018095
0.403;0.020397
0.404;0.022205
0.405;0.022041
0.406;0.022698
0.407;0.021712
0.408;0.021548
0.409;0.022698
0.41;0.024178
0.411;0.02352
0.412;0.023685
0.413;0.024507
0.414;0.025986
0.415;0.026972
0.416;0.028452
0.417;0.029109
0.418;0.030753
0.419;0.031575
0.42;0.032397
0.421;0.034863
0.422;0.034699
0.423;0.036178
0.424;0.036178
0.425;0.035521
0.426;0.035521
0.427;0.035685
0.428;0.035685
0.429;0.036836
0.43;0.037658
0.431;0.039302
0.432;0.040781
0.433;0.041603
0.434;0.043904
0.435;0.04522
0.436;0.04637
0.437;0.047028
0.438;0.049
0.439;0.048836
0.44;0.048836
0.441;0.050151
0.442;0.049165
0.443;0.049494
0.444;0.049822
0.445;0.051302
0.446;0.051138
0.447;0.052946
0.448;0.053932
0.449;0.054754
0.45;0.056562
0.451;0.058864
0.452;0.059521
0.453;0.060836
0.454;0.061658
0.455;0.061823
0.456;0.061987
0.457;0.061823
0.458;0.062973
0.459;0.062152
0.46;0.063138
0.461;0.063467
0.462;0.063138
0.463;0.065768
0.464;0.066261
0.465;0.06659
0.466;0.06807
0.467;0.069549
0.468;0.070864
0.469;0.070864
0.47;0.073494
0.471;0.073166
0.472;0.073987
0.473;0.073001
0.474;0.073166
0.475;0.07185
0.476;0.071028
0.477;0.071193
0.478;0.071193
0.479;0.072179
0.48;0.070864
0.481;0.071686
0.482;0.07185
0.483;0.072837
0.484;0.072179
0.485;0.072672
0.486;0.072179
0.487;0.073001
0.488;0.07185
0.489;0.07185
0.49;0.0707
0.491;0.069549
0.492;0.067905
0.493;0.066919
0.494;0.06396
0.495;0.064617
0.496;0.063302
0.497;0.061658
0.498;0.061165
0.499;0.061001
0.5;0.060014
0.501;0.059028
0.502;0.05722
0.503;0.057877
0.504;0.056398
0.505;0.056891
0.506;0.053275
0.507;0.051138
0.508;0.05048
0.509;0.046535
0.51;0.045548
0.511;0.044562
0.512;0.043904
0.513;0.042918
0.514;0.041603
0.515;0.039137
0.516;0.038315
0.517;0.037986
0.518;0.036836
0.519;0.036507
0.52;0.036343
0.521;0.034863
0.522;0.032562
0.523;0.03174
0.524;0.029767
0.525;0.027959
0.526;0.025822
0.527;0.023356
0.528;0.023685
0.529;0.021876
0.53;0.021054
0.531;0.020561
0.532;0.019739
0.533;0.019575
0.534;0.017438
0.535;0.017931
0.536;0.016287
0.537;0.014808
0.538;0.015465
0.539;0.012999
0.54;0.012013
0.541;0.010369
0.542;0.011356
0.543;0.009054
0.544;0.00741
0.545;0.005602
0.546;0.004616
0.547;0.005602
0.548;0.003629
0.549;0.003629
0.55;0.003958
0.551;0.002479
0.552;0.002479
0.553;0.00215
0.554;0.000506
0.555;0.001492
0.556;-0.000645
0.557;-0.001302
0.558;-0.001796
0.559;-0.004097
0.56;-0.004097
0.561;-0.006727
0.562;-0.004261
0.563;-0.005741
0.564;-0.00607
0.565;-0.006563
0.566;-0.007385
0.567;-0.006234
0.568;-0.006234
0.569;-0.007385
0.57;-0.00722
0.571;-0.008535
0.572;-0.006563
0.573;-0.007878
0.574;-0.010508
0.575;-0.011001
0.576;-0.011823
0.577;-0.011001
0.578;-0.011988
0.579;-0.01281
0.58;-0.01396
0.581;-0.01396
0.582;-0.012974
0.583;-0.01396
0.584;-0.013467
0.585;-0.013796
0.586;-0.012974
0.587;-0.012645
0.588;-0.012481
0.589;-0.013631
0.59;-0.013631
0.591;-0.014618
0.592;-0.01396
0.593;-0.014453
0.594;-0.014947
0.595;-0.016755
0.596;-0.016755
0.597;-0.017577
0.598;-0.017248
0.599;-0.017248
0.6;-0.016755
0.601;-0.014125
0.602;-0.015933
0.603;-0.014782
0.604;-0.013138
0.605;-0.013796
0.606;-0.014453
0.607;-0.014618
0.608;-0.015769
0.609;-0.016262
0.61;-0.016262
0.611;-0.017577
0.612;-0.017741
0.613;-0.018892
0.614;-0.017577
0.615;-0.017412
0.616;-0.016755
0.617;-0.015111
0.618;-0.015275
0.619;-0.015604
0.62;-0.014289
0.621;-0.013796
0.622;-0.015111
0.623;-0.015111
0.624;-0.016097
0.625;-0.015604
0.626;-0.015604
0.627;-0.016755
0.628;-0.017577
0.629;-0.017412
0.63;-0.017741
0.631;-0.015769
0.632;-0.016919
0.633;-0.017412
0.634;-0.016097
0.635;-0.015275
0.636;-0.014618
0.637;-0.014618
0.638;-0.013796
0.639;-0.014782
0.64;-0.015275
0.641;-0.014289
0.642;-0.015933
0.643;-0.016755
0.644;-0.015769
0.645;-0.017412
0.646;-0.016919
0.647;-0.016919
0.648;-0.015604
0.649;-0.016262
0.65;-0.014618
0.651;-0.01544
0.652;-0.01396
0.653;-0.013796
0.654;-0.012316
0.655;-0.01396
0.656;-0.013796
0.657;-0.014453
0.658;-0.014782
0.659;-0.016097
0.66;-0.01544
0.661;-0.016262
0.662;-0.017084
0.663;-0.017248
0.664;-0.015111
0.665;-0.015111
0.666;-0.015769
0.667;-0.014782
0.668;-0.015275
0.669;-0.013631
0.67;-0.011823
0.671;-0.012645
0.672;-0.011988
0.673;-0.012152
0.674;-0.013631
0.675;-0.01281
0.676;-0.01396
0.677;-0.014453
0.678;-0.015111
0.679;-0.015604
0.68;-0.015933
0.681;-0.013467
0.682;-0.014782
0.683;-0.013631
0.684;-0.012316
0.685;-0.012152
0.686;-0.011001
0.687;-0.011001
0.688;-0.009851
0.689;-0.011166
0.69;-0.012152
0.691;-0.012645
0.692;-0.015275
0.693;-0.012645
0.694;-0.013467
0.695;-0.014125
0.696;-0.014289
0.697;-0.013303
0.698;-0.01396
0.699;-0.012645
0.7;-0.01281
0.701;-0.010673
0.702;-0.011988
0.703;-0.011988
0.704;-0.012152
0.705;-0.010015
0.706;-0.012645
0.707;-0.012316
0.708;-0.014125
0.709;-0.01396
0.71;-0.014618
0.711;-0.014289
0.712;-0.014782
0.713;-0.013796
0.714;-0.013796
0.715;-0.013138
0.716;-0.012481
0.717;-0.014125
0.718;-0.01133
0.719;-0.011166
0.72;-0.009851
0.721;-0.01133
0.722;-0.011659
0.723;-0.012316
0.724;-0.011988
0.725;-0.011988
0.726;-0.012316
0.727;-0.013303
0.728;-0.015111
0.729;-0.014782
0.73;-0.01396
0.731;-0.014125
0.732;-0.014618
0.733;-0.013467
0.734;-0.012481
0.735;-0.01133
0.736;-0.011823
0.737;-0.011166
0.738;-0.010673
0.739;-0.011823
0.74;-0.011823
0.741;-0.01133
0.742;-0.01281
0.743;-0.01396
0.744;-0.013631
0.745;-0.014618
0.746;-0.014289
0.747;-0.014618
0.748;-0.013303
0.749;-0.01396
0.75;-0.012645
0.751;-0.010837
0.752;-0.011823
0.753;-0.011494
0.754;-0.011001
0.755;-0.010837
0.756;-0.011823
0.757;-0.011988
0.758;-0.01281
0.759;-0.01396
0.76;-0.013631
0.761;-0.014289
0.762;-0.014782
0.763;-0.01396
0.764;-0.013796
0.765;-0.012645
0.766;-0.013467
0.767;-0.011659
0.768;-0.011494
0.769;-0.010508
0.77;-0.01133
0.771;-0.010837
0.772;-0.012316
0.773;-0.011823
0.774;-0.011988
0.775;-0.012316
0.776;-0.011494
0.777;-0.014453
0.778;-0.014618
0.779;-0.014947
0.78;-0.012974
0.781;-0.013631
0.782;-0.013303
0.783;-0.013467
0.784;-0.01281
0.785;-0.011988
0.786;-0.011166
0.787;-0.009522
0.788;-0.011001
0.789;-0.011166
0.79;-0.011823
0.791;-0.011166
0.792;-0.012645
0.793;-0.012152
0.794;-0.014289
0.795;-0.014289
0.796;-0.014618
0.797;-0.01396
0.798;-0.013467
0.799;-0.012645
0.8;-0.012645
0.801;-0.01281
0.802;-0.011823
0.803;-0.010508
0.804;-0.01133
0.805;-0.010673
0.806;-0.012974
0.807;-0.013467
0.808;-0.011988
0.809;-0.013303
0.81;-0.012152
0.811;-0.01396
0.812;-0.014453
0.813;-0.014618
0.814;-0.013796
0.815;-0.012974
0.816;-0.013467
0.817;-0.013796
0.818;-0.01133
0.819;-0.011166
0.82;-0.011823
0.821;-0.009522
0.822;-0.010837
0.823;-0.011001
0.824;-0.011988
0.825;-0.013138
0.826;-0.014782
0.827;-0.013303
0.828;-0.013631
0.829;-0.013631
0.83;-0.014947
0.831;-0.013303
0.832;-0.013631
0.833;-0.013467
0.834;-0.01133
0.835;-0.01133
0.836;-0.011494
0.837;-0.010673
0.838;-0.011001
0.839;-0.011494
0.84;-0.010837
0.841;-0.011823
0.842;-0.012316
0.843;-0.013303
0.844;-0.013467
0.845;-0.013796
0.846;-0.014125
0.847;-0.014289
0.848;-0.013138
0.849;-0.012645
0.85;-0.012481
0.851;-0.011823
0.852;-0.010837
0.853;-0.011988
0.854;-0.010837
0.855;-0.010344
0.856;-0.011823
0.857;-0.01133
0.858;-0.011988
0.859;-0.011823
0.86;-0.014618
0.861;-0.01396
0.862;-0.015275
0.863;-0.013796
0.864;-0.013138
0.865;-0.013631
0.866;-0.01281
0.867;-0.012481
0.868;-0.011166
0.869;-0.01133
0.87;-0.011001
0.871;-0.010015
0.872;-0.010837
0.873;-0.011659
0.874;-0.011494
0.875;-0.01396
0.876;-0.013138
0.877;-0.013631
0.878;-0.013467
0.879;-0.013631
0.88;-0.013467
0.881;-0.012974
0.882;-0.01396
0.883;-0.012152
0.884;-0.010673
0.885;-0.008864
0.886;-0.009357
0.887;-0.007549
0.888;-0.009357
0.889;-0.008864
0.89;-0.012152
0.891;-0.011001
0.892;-0.013303
0.893;-0.012152
0.894;-0.013138
0.895;-0.013631
0.896;-0.012974
0.897;-0.01281
0.898;-0.011823
0.899;-0.01396
0.9;-0.011823
0.901;-0.010673
0.902;-0.010508
0.903;-0.011659
0.904;-0.009686
0.905;-0.011494
0.906;-0.010508
0.907;-0.012316
0.908;-0.011659
0.909;-0.012974
0.91;-0.01281
0.911;-0.013467
0.912;-0.014618
0.913;-0.013796
0.914;-0.013631
0.915;-0.012481
0.916;-0.012481
0.917;-0.011166
0.918;-0.011659
0.919;-0.010508
0.92;-0.010837
0.921;-0.010015
0.922;-0.009851
0.923;-0.009851
0.924;-0.012481
0.925;-0.01133
0.926;-0.011659
0.927;-0.011659
0.928;-0.011166
0.929;-0.010673
0.93;-0.010508
0.931;-0.009193
0.932;-0.009686
0.933;-0.009522
0.934;-0.007549
0.935;-0.006892
0.936;-0.007878
0.937;-0.004261
0.938;-0.005412
0.939;-0.005905
0.94;-0.006727
0.941;-0.006892
0.942;-0.00722
0.943;-0.006234
0.944;-0.008371
0.945;-0.007878
0.946;-0.007056
0.947;-0.006892
0.948;-0.005741
0.949;-0.00459
0.95;-0.004261
0.951;-0.00196
0.952;-0.00196
0.953;-0.001302
0.954;-0.002124
0.955;-0.001467
0.956;-0.001467
0.957;-0.001302
0.958;-0.001467
0.959;-0.00196
0.96;-0.001138
0.961;-0.000152
0.962;-0.000809
0.963;-0.000152
0.964;0.000506
0.965;0.001163
0.966;0.002972
0.967;0.004451
0.968;0.004944
0.969;0.005109
0.97;0.006095
0.971;0.008725
0.972;0.008232
0.973;0.007246
0.974;0.008232
0.975;0.006588
0.976;0.006917
0.977;0.00889
0.978;0.008725
0.979;0.00889
0.98;0.008561
0.981;0.009218
0.982;0.01004
0.983;0.011356
0.984;0.011684
0.985;0.013986
0.986;0.012671
0.987;0.01415
0.988;0.012671
0.989;0.012013
0.99;0.012999
0.991;0.011849
0.992;0.009712
0.993;0.009054
0.994;0.007081
0.995;0.006588
0.996;0.007739
0.997;0.007575
0.998;0.006588
0.999;0.005602
1;0.007739
1.001;0.007081
1.002;0.007903
1.003;0.00741
1.004;0.006095
1.005;0.006424
1.006;0.005273
1.007;0.003465
1.008;0.002643
1.009;0.00215
1.01;0.001657
1.011;0.001657
1.012;0.000999
1.013;1.27E-05
1.014;-0.001796
1.015;-0.000974
1.016;-0.000809
1.017;-0.00048
1.018;-0.001467
1.019;-0.000809
1.02;1.27E-05
1.021;0.00067
1.022;-0.00048
1.023;-0.002782
1.024;-0.002617
1.025;-0.003439
1.026;-0.005083
1.027;-0.005248
1.028;-0.00607
1.029;-0.007056
1.03;-0.006563
1.031;-0.008207
1.032;-0.00722
1.033;-0.006727
1.034;-0.004919
1.035;-0.004097
1.036;-0.006234
1.037;-0.006234
1.038;-0.006892
1.039;-0.006892
1.04;-0.007714
1.041;-0.008535
1.042;-0.008864
1.043;-0.008371
1.044;-0.009686
1.045;-0.010015
1.046;-0.010344
1.047;-0.009686
1.048;-0.010673
1.049;-0.010673
1.05;-0.009851
1.051;-0.009851
1.052;-0.007878
1.053;-0.009029
1.054;-0.008371
1.055;-0.0087
1.056;-0.009193
1.057;-0.011494
1.058;-0.010508
1.059;-0.011823
1.06;-0.012316
1.061;-0.012645
1.062;-0.011988
1.063;-0.013467
1.064;-0.012974
1.065;-0.012316
1.066;-0.011823
1.067;-0.011166
1.068;-0.010837
1.069;-0.011166
1.07;-0.010344
1.071;-0.011494
1.072;-0.010673
1.073;-0.011823
1.074;-0.012152
1.075;-0.012974
1.076;-0.015604
1.077;-0.014782
1.078;-0.017248
1.079;-0.016262
1.08;-0.016755
1.081;-0.017577
1.082;-0.019056
1.083;-0.017577
1.084;-0.018892
1.085;-0.017906
1.086;-0.019385
1.087;-0.021687
1.088;-0.02333
1.089;-0.027933
1.09;-0.029248
1.091;-0.032207
1.092;-0.033522
1.093;-0.035824
1.094;-0.039605
1.095;-0.042235
1.096;-0.043057
1.097;-0.044865
1.098;-0.042728
1.099;-0.042893
1.1;-0.042399
1.101;-0.039605
1.102;-0.037632
1.103;-0.033029
1.104;-0.028098
1.105;-0.022673
1.106;-0.015111
1.107;-0.007056
1.108;0.001328
1.109;0.010205
1.11;0.021383
1.111;0.031247
1.112;0.043576
1.113;0.056398
1.114;0.070535
1.115;0.082207
1.116;0.09618
1.117;0.109824
1.118;0.123962
1.119;0.135962
1.12;0.149113
1.121;0.158319
1.122;0.168018
1.123;0.174429
1.124;0.181497
1.125;0.183799
1.126;0.183963
1.127;0.180347
1.128;0.174429
1.129;0.164401
1.13;0.15125
1.131;0.136784
1.132;0.122318
1.133;0.108509
1.134;0.094043
1.135;0.082207
1.136;0.070864
1.137;0.06133
1.138;0.050151
1.139;0.04111
1.14;0.032397
1.141;0.025329
1.142;0.015465
1.143;0.010534
1.144;0.005438
1.145;0.000999
1.146;-0.003604
1.147;-0.005412
1.148;-0.010344
1.149;-0.011001
1.15;-0.012645
1.151;-0.012316
1.152;-0.012974
1.153;-0.013138
1.154;-0.015769
1.155;-0.015111
1.156;-0.015933
1.157;-0.016919
1.158;-0.016426
1.159;-0.017412
1.16;-0.016426
1.161;-0.017084
1.162;-0.015933
1.163;-0.012316
1.164;-0.011823
1.165;-0.008371
1.166;-0.005905
1.167;-0.003933
1.168;-0.003111
1.169;-0.000645
1.17;0.000835
1.171;0.003136
1.172;0.002314
1.173;0.003136
1.174;0.002479
1.175;0.004287
1.176;0.001657
1.177;0.002972
1.178;0.002314
1.179;0.002643
1.18;0.002479
1.181;0.002314
1.182;0.00215
1.183;0.001163
1.184;0.002807
1.185;0.001821
1.186;0.002807
1.187;0.00215
1.188;0.001492
1.189;0.002479
1.19;-0.000152
1.191;-0.001467
1.192;-0.002124
1.193;-0.000974
1.194;-0.003111
1.195;-0.002453
1.196;-0.002453
1.197;-0.002782
1.198;-0.00196
1.199;-0.00196
1.2;-0.001138
1.201;0.000999
1.202;-0.000152
1.203;0.000835
1.204;0.000835
1.205;0.000835
1.206;1.27E-05
1.207;0.00067
1.208;1.27E-05
1.209;0.00067
1.21;-0.000645
1.211;-0.00196
1.212;-0.00048
1.213;-0.00048
1.214;-0.00048
1.215;0.001328
1.216;0.001163
1.217;0.001657
1.218;0.003958
1.219;0.005273
1.22;0.004287
1.221;0.004944
1.222;0.00478
1.223;0.004451
1.224;0.004944
1.225;0.004122
1.226;0.003465
1.227;0.004944
1.228;0.003465
1.229;0.003958
1.23;0.005438
1.231;0.007246
1.232;0.007081
1.233;0.008397
1.234;0.009383
1.235;0.009547
1.236;0.010698
1.237;0.012013
1.238;0.013328
1.239;0.012013
1.24;0.011027
1.241;0.012506
1.242;0.012506
1.243;0.012013
1.244;0.013493
1.245;0.013493
1.246;0.01415
1.247;0.012177
1.248;0.015465
1.249;0.016287
1.25;0.017931
1.251;0.018589
1.252;0.019739
1.253;0.020232
1.254;0.021712
1.255;0.022041
1.256;0.022534
1.257;0.022863
1.258;0.02237
1.259;0.02352
1.26;0.023191
1.261;0.024013
1.262;0.025164
1.263;0.024507
1.264;0.025493
1.265;0.026644
1.266;0.028452
1.267;0.030425
1.268;0.031247
1.269;0.032233
1.27;0.032233
1.271;0.034534
1.272;0.034863
1.273;0.03437
1.274;0.034699
1.275;0.03437
1.276;0.035849
1.277;0.035849
1.278;0.035849
1.279;0.037
1.28;0.038151
1.281;0.040288
1.282;0.039959
1.283;0.041767
1.284;0.042589
1.285;0.043411
1.286;0.04522
1.287;0.046535
1.288;0.047521
1.289;0.047521
1.29;0.04785
1.291;0.049165
1.292;0.049
1.293;0.050151
1.294;0.049822
1.295;0.050316
1.296;0.050151
1.297;0.051302
1.298;0.053932
1.299;0.055412
1.3;0.05722
1.301;0.058371
1.302;0.060179
1.303;0.061658
1.304;0.060014
1.305;0.061823
1.306;0.06248
1.307;0.063467
1.308;0.063302
1.309;0.061987
1.31;0.06396
1.311;0.064289
1.312;0.064453
1.313;0.065604
1.314;0.066426
1.315;0.068398
1.316;0.06922
1.317;0.070864
1.318;0.071357
1.319;0.072508
1.32;0.073823
1.321;0.074809
1.322;0.073823
1.323;0.074809
1.324;0.073987
1.325;0.074481
1.326;0.075467
1.327;0.074809
1.328;0.074809
1.329;0.075796
1.33;0.075467
1.331;0.076618
1.332;0.076618
1.333;0.077933
1.334;0.078097
1.335;0.078919
1.336;0.079412
1.337;0.079084
1.338;0.078262
1.339;0.078919
1.34;0.07744
1.341;0.075467
1.342;0.074974
1.343;0.074974
1.344;0.074316
1.345;0.073659
1.346;0.072179
1.347;0.07185
1.348;0.071522
1.349;0.072179
1.35;0.07185
1.351;0.07185
1.352;0.071028
1.353;0.069878
1.354;0.068891
1.355;0.067741
1.356;0.066097
1.357;0.063138
1.358;0.061823
1.359;0.061165
1.36;0.059028
1.361;0.058042
1.362;0.056727
1.363;0.055247
1.364;0.054261
1.365;0.052946
1.366;0.052124
1.367;0.051302
1.368;0.051138
1.369;0.051466
1.37;0.049494
1.371;0.047521
1.372;0.045877
1.373;0.043576
1.374;0.041932
1.375;0.03963
1.376;0.038644
1.377;0.037329
1.378;0.035027
1.379;0.033877
1.38;0.032726
1.381;0.03289
1.382;0.032068
1.383;0.029767
1.384;0.030096
1.385;0.029603
1.386;0.028452
1.387;0.028123
1.388;0.027466
1.389;0.025986
1.39;0.02352
1.391;0.021712
1.392;0.020068
1.393;0.017931
1.394;0.016452
1.395;0.015301
1.396;0.014808
1.397;0.014643
1.398;0.01415
1.399;0.01415
1.4;0.013986
1.401;0.013328
1.402;0.013164
1.403;0.011684
1.404;0.010862
1.405;0.010534
1.406;0.009712
1.407;0.008232
1.408;0.00741
1.409;0.005273
1.41;0.004451
1.411;0.002643
1.412;0.002314
1.413;0.000835
1.414;0.002314
1.415;0.001492
1.416;0.001821
1.417;0.001821
1.418;0.002807
1.419;0.003136
1.42;0.000999
1.421;0.00067
1.422;0.000177
1.423;-0.00048
1.424;-0.001302
1.425;-0.003111
1.426;-0.00459
1.427;-0.003933
1.428;-0.006234
1.429;-0.005576
1.43;-0.006398
1.431;-0.005412
1.432;-0.00459
1.433;-0.004755
1.434;-0.005083
1.435;-0.004919
1.436;-0.005083
1.437;-0.00607
1.438;-0.006234
1.439;-0.007549
1.44;-0.007549
1.441;-0.0087
1.442;-0.009193
1.443;-0.010179
1.444;-0.01133
1.445;-0.011166
1.446;-0.009686
1.447;-0.011494
1.448;-0.010179
1.449;-0.009029
1.45;-0.009686
1.451;-0.0087
1.452;-0.008371
1.453;-0.007549
1.454;-0.009029
1.455;-0.009522
1.456;-0.009193
1.457;-0.009686
1.458;-0.011166
1.459;-0.010837
1.46;-0.01133
1.461;-0.011988
1.462;-0.012974
1.463;-0.012152
1.464;-0.011659
1.465;-0.010344
1.466;-0.010837
1.467;-0.010837
1.468;-0.009686
1.469;-0.009357
1.47;-0.010344
1.471;-0.009357
1.472;-0.010344
1.473;-0.011001
1.474;-0.011166
1.475;-0.011001
1.476;-0.01281
1.477;-0.013303
1.478;-0.013138
1.479;-0.011166
1.48;-0.011823
1.481;-0.011988
1.482;-0.010673
1.483;-0.011166
1.484;-0.010673
1.485;-0.010015
1.486;-0.009686
1.487;-0.009522
1.488;-0.0087
1.489;-0.010179
1.49;-0.010344
1.491;-0.010508
1.492;-0.012645
1.493;-0.012481
1.494;-0.012481
1.495;-0.012316
1.496;-0.012481
1.497;-0.011823
1.498;-0.011166
1.499;-0.01133
1.5;-0.009522
1.501;-0.008371
1.502;-0.008371
1.503;-0.007878
1.504;-0.008371
1.505;-0.008207
1.506;-0.010015
1.507;-0.010179
1.508;-0.010508
1.509;-0.009686
1.51;-0.011166
1.511;-0.012316
1.512;-0.012152
1.513;-0.01133
1.514;-0.010508
1.515;-0.009193
1.516;-0.009193
1.517;-0.010344
1.518;-0.009522
1.519;-0.009193
1.52;-0.008371
1.521;-0.008042
1.522;-0.009029
1.523;-0.008535
1.524;-0.008207
1.525;-0.010508
1.526;-0.011988
1.527;-0.012316
1.528;-0.011001
1.529;-0.010673
1.53;-0.009193
1.531;-0.009851
1.532;-0.009357
1.533;-0.008371
1.534;-0.007056
1.535;-0.007056
1.536;-0.00722
1.537;-0.005248
1.538;-0.006398
1.539;-0.006563
1.54;-0.00722
1.541;-0.007878
1.542;-0.009193
1.543;-0.009522
1.544;-0.010015
1.545;-0.010015
1.546;-0.008864
1.547;-0.008864
1.548;-0.009029
1.549;-0.0087
1.55;-0.006727
1.551;-0.006234
1.552;-0.006234
1.553;-0.006234
1.554;-0.006234
1.555;-0.006563
1.556;-0.007714
1.557;-0.007385
1.558;-0.008535
1.559;-0.009193
1.56;-0.009522
1.561;-0.009357
1.562;-0.010508
1.563;-0.009193
1.564;-0.008207
1.565;-0.007878
1.566;-0.008042
1.567;-0.00722
1.568;-0.006892
1.569;-0.006398
1.57;-0.00722
1.571;-0.006892
1.572;-0.006727
1.573;-0.00607
1.574;-0.008042
1.575;-0.009029
1.576;-0.008042
1.577;-0.009522
1.578;-0.009357
1.579;-0.010344
1.58;-0.009522
1.581;-0.009193
1.582;-0.007385
1.583;-0.008042
1.584;-0.006727
1.585;-0.007056
1.586;-0.005905
1.587;-0.007056
1.588;-0.005905
1.589;-0.007549
1.59;-0.007385
1.591;-0.0087
1.592;-0.009357
1.593;-0.009357
1.594;-0.009686
1.595;-0.0087
1.596;-0.010344
1.597;-0.0087
1.598;-0.009357
1.599;-0.008535
1.6;-0.006727
1.601;-0.00722
1.602;-0.00607
1.603;-0.005905
1.604;-0.006892
1.605;-0.007385
1.606;-0.00722
1.607;-0.007385
1.608;-0.008371
1.609;-0.008371
1.61;-0.009686
1.611;-0.011001
1.612;-0.009193
1.613;-0.009686
1.614;-0.008864
1.615;-0.008207
1.616;-0.007878
1.617;-0.008371
1.618;-0.006563
1.619;-0.006727
1.62;-0.007056
1.621;-0.006892
1.622;-0.00722
1.623;-0.0087
1.624;-0.008864
1.625;-0.007878
1.626;-0.010015
1.627;-0.009193
1.628;-0.008371
1.629;-0.008864
1.63;-0.009686
1.631;-0.009357
1.632;-0.008042
1.633;-0.007878
1.634;-0.007714
1.635;-0.006727
1.636;-0.006234
1.637;-0.006234
1.638;-0.006727
1.639;-0.007714
1.64;-0.007549
1.641;-0.008207
1.642;-0.009029
1.643;-0.009029
1.644;-0.009029
1.645;-0.010179
1.646;-0.010015
1.647;-0.009522
1.648;-0.008371
1.649;-0.007056
1.65;-0.008207
1.651;-0.00607
1.652;-0.00607
1.653;-0.005741
1.654;-0.006398
1.655;-0.006398
1.656;-0.006234
1.657;-0.007549
1.658;-0.007878
1.659;-0.0087
1.66;-0.009851
1.661;-0.009851
1.662;-0.009357
1.663;-0.008864
1.664;-0.009357
1.665;-0.008535
1.666;-0.009193
1.667;-0.00722
1.668;-0.007878
1.669;-0.006563
1.67;-0.007056
1.671;-0.007385
1.672;-0.007056
1.673;-0.007549
1.674;-0.006727
1.675;-0.0087
1.676;-0.009193
1.677;-0.008864
1.678;-0.009029
1.679;-0.009193
1.68;-0.009029
1.681;-0.0087
1.682;-0.007549
1.683;-0.007878
1.684;-0.007878
1.685;-0.005576
1.686;-0.005248
1.687;-0.006563
1.688;-0.006563
1.689;-0.006234
1.69;-0.00722
1.691;-0.008207
1.692;-0.009029
1.693;-0.009193
1.694;-0.008535
1.695;-0.009357
1.696;-0.009522
1.697;-0.008535
1.698;-0.007056
1.699;-0.008535
1.7;-0.007549
1.701;-0.006892
1.702;-0.006892
1.703;-0.007056
1.704;-0.005905
1.705;-0.006398
1.706;-0.007385
1.707;-0.007385
1.708;-0.007878
1.709;-0.009357
1.71;-0.009686
1.711;-0.0087
1.712;-0.008535
1.713;-0.009522
1.714;-0.009851
1.715;-0.008371
1.716;-0.008207
1.717;-0.007878
1.718;-0.006892
1.719;-0.005741
1.72;-0.006892
1.721;-0.006234
1.722;-0.006234
1.723;-0.007056
1.724;-0.007385
1.725;-0.008864
1.726;-0.008535
1.727;-0.009193
1.728;-0.010015
1.729;-0.009851
1.73;-0.009522
1.731;-0.008864
1.732;-0.0087
1.733;-0.007878
1.734;-0.005905
1.735;-0.005905
1.736;-0.005412
1.737;-0.006892
1.738;-0.005576
1.739;-0.006892
1.74;-0.005741
1.741;-0.005741
1.742;-0.006398
1.743;-0.006892
1.744;-0.008207
1.745;-0.007549
1.746;-0.008042
1.747;-0.007714
1.748;-0.008371
1.749;-0.007385
1.75;-0.007714
1.751;-0.006727
1.752;-0.006234
1.753;-0.005412
1.754;-0.006398
1.755;-0.005905
1.756;-0.006727
1.757;-0.005741
1.758;-0.007878
1.759;-0.008371
1.76;-0.008371
1.761;-0.009029
1.762;-0.009522
1.763;-0.009522
1.764;-0.009193
1.765;-0.008042
1.766;-0.007385
1.767;-0.007385
1.768;-0.006234
1.769;-0.006727
1.77;-0.007549
1.771;-0.006563
1.772;-0.006727
1.773;-0.007714
1.774;-0.007385
1.775;-0.008535
1.776;-0.009193
1.777;-0.009851
1.778;-0.009686
1.779;-0.008535
1.78;-0.007714
1.781;-0.007056
1.782;-0.00607
1.783;-0.004755
1.784;-0.003768
1.785;-0.003768
1.786;-0.004097
1.787;-0.002782
1.788;-0.003933
1.789;-0.003111
1.79;-0.003275
1.791;-0.003604
1.792;-0.003768
1.793;-0.004261
1.794;-0.004919
1.795;-0.003604
1.796;-0.004261
1.797;-0.004919
1.798;-0.002617
1.799;-0.002289
1.8;-0.001796
1.801;1.27E-05
1.802;0.000342
1.803;0.00067
1.804;0.00067
1.805;0.001163
1.806;0.000999
1.807;-0.000152
1.808;-0.000152
1.809;0.000342
1.81;0.00067
1.811;-0.00048
1.812;0.000177
1.813;0.001492
1.814;1.27E-05
1.815;0.001821
1.816;0.003958
1.817;0.006424
1.818;0.006259
1.819;0.007575
1.82;0.006917
1.821;0.008068
1.822;0.008068
1.823;0.007903
1.824;0.008397
1.825;0.008397
1.826;0.008725
1.827;0.007575
1.828;0.009383
1.829;0.009218
1.83;0.009054
1.831;0.01004
1.832;0.012999
1.833;0.013657
1.834;0.014972
1.835;0.015794
1.836;0.016452
1.837;0.016123
1.838;0.01678
1.839;0.016452
1.84;0.01678
1.841;0.01563
1.842;0.014808
1.843;0.015958
1.844;0.01415
1.845;0.012835
1.846;0.013328
1.847;0.014643
1.848;0.013493
1.849;0.01415
1.85;0.013657
1.851;0.014972
1.852;0.014643
1.853;0.013986
1.854;0.012671
1.855;0.011849
1.856;0.011356
1.857;0.010205
1.858;0.01004
1.859;0.00741
1.86;0.006588
1.861;0.005602
1.862;0.006917
1.863;0.005766
1.864;0.006259
1.865;0.006424
1.866;0.007246
1.867;0.007246
1.868;0.00741
1.869;0.007903
1.87;0.005273
1.871;0.005273
1.872;0.004122
1.873;0.00478
1.874;0.002972
1.875;0.002972
1.876;0.000506
1.877;0.000177
1.878;-0.000152
1.879;-0.000316
1.88;-0.000316
1.881;0.000177
1.882;-0.000152
1.883;0.000506
1.884;0.000177
1.885;0.000506
1.886;-0.00048
1.887;-0.001467
1.888;-0.001138
1.889;-0.001138
1.89;-0.001631
1.891;-0.003604
1.892;-0.00459
1.893;-0.005083
1.894;-0.007385
1.895;-0.005576
1.896;-0.005905
1.897;-0.005412
1.898;-0.006398
1.899;-0.003933
1.9;-0.004097
1.901;-0.003933
1.902;-0.004261
1.903;-0.004426
1.904;-0.004919
1.905;-0.005248
1.906;-0.006563
1.907;-0.006398
1.908;-0.008042
1.909;-0.007878
1.91;-0.008864
1.911;-0.00722
1.912;-0.008535
1.913;-0.0087
1.914;-0.008535
1.915;-0.007714
1.916;-0.00722
1.917;-0.006234
1.918;-0.00607
1.919;-0.00607
1.92;-0.006727
1.921;-0.007056
1.922;-0.007549
1.923;-0.007549
1.924;-0.008371
1.925;-0.010344
1.926;-0.0087
1.927;-0.010673
1.928;-0.011823
1.929;-0.010673
1.93;-0.010344
1.931;-0.011659
1.932;-0.011001
1.933;-0.011166
1.934;-0.01133
1.935;-0.010508
1.936;-0.010508
1.937;-0.011988
1.938;-0.012481
1.939;-0.014782
1.94;-0.016097
1.941;-0.016426
1.942;-0.019714
1.943;-0.021522
1.944;-0.024646
1.945;-0.025961
1.946;-0.02892
1.947;-0.030728
1.948;-0.03155
1.949;-0.032536
1.95;-0.035824
1.951;-0.03681
1.952;-0.037139
1.953;-0.037632
1.954;-0.038783
1.955;-0.039769
1.956;-0.038619
1.957;-0.038125
1.958;-0.036317
1.959;-0.032865
1.96;-0.028262
1.961;-0.022837
1.962;-0.01544
1.963;-0.006892
1.964;0.002972
1.965;0.012671
1.966;0.025164
1.967;0.037164
1.968;0.049987
1.969;0.062809
1.97;0.075138
1.971;0.088125
1.972;0.10144
1.973;0.113276
1.974;0.12577
1.975;0.137113
1.976;0.147962
1.977;0.158319
1.978;0.16736
1.979;0.175086
1.98;0.181662
1.981;0.185772
1.982;0.187909
1.983;0.18495
1.984;0.179689
1.985;0.169004
1.986;0.158812
1.987;0.141551
1.988;0.126263
1.989;0.110975
1.99;0.097166
1.991;0.081878
1.992;0.071193
1.993;0.059521
1.994;0.05048
1.995;0.040945
1.996;0.033712
1.997;0.026315
1.998;0.019411
1.999;0.013821
2;0.009547
2.001;0.006588
2.002;0.002807
2.003;0.000177
2.004;-0.004097
2.005;-0.006727
2.006;-0.009193
2.007;-0.011659
2.008;-0.013631
2.009;-0.014125
2.01;-0.015111
2.011;-0.016262
2.012;-0.01544
2.013;-0.015769
2.014;-0.015604
2.015;-0.013796
2.016;-0.012316
2.017;-0.01133
2.018;-0.010344
2.019;-0.007878
2.02;-0.005576
2.021;-0.005741
2.022;-0.003768
2.023;-0.002289
2.024;-0.001138
2.025;-0.000316
2.026;0.001163
2.027;0.001328
2.028;0.002479
2.029;0.003301
2.03;0.003465
2.031;0.005438
2.032;0.006095
2.033;0.006917
2.034;0.006424
2.035;0.008725
2.036;0.007246
2.037;0.006588
2.038;0.006095
2.039;0.005766
2.04;0.004616
2.041;0.003301
2.042;0.002643
2.043;0.00067
2.044;0.000342
2.045;0.000177
2.046;0.000506
2.047;0.000506
2.048;-0.000152
2.049;0.001328
2.05;0.003301
2.051;0.003136
2.052;0.002972
2.053;0.001821
2.054;0.00215
2.055;0.001657
2.056;0.000999
2.057;0.001985
2.058;-0.000152
2.059;0.000177
2.06;-0.001467
2.061;1.27E-05
2.062;0.000342
2.063;0.00067
2.064;0.000177
2.065;0.002972
2.066;0.003301
2.067;0.003136
2.068;0.003136
2.069;0.006095
2.07;0.005438
2.071;0.003958
2.072;0.004451
2.073;0.003958
2.074;0.004451
2.075;0.003465
2.076;0.004122
2.077;0.003794
2.078;0.003794
2.079;0.004287
2.08;0.005438
2.081;0.005109
2.082;0.006753
2.083;0.006424
2.084;0.008725
2.085;0.009218
2.086;0.010369
2.087;0.009712
2.088;0.01004
2.089;0.01152
2.09;0.01004
2.091;0.010534
2.092;0.010369
2.093;0.011191
2.094;0.010862
2.095;0.01152
2.096;0.012671
2.097;0.013164
2.098;0.013328
2.099;0.016123
2.1;0.016452
2.101;0.01678
2.102;0.017438
2.103;0.018917
2.104;0.018917
2.105;0.018753
2.106;0.020397
2.107;0.019739
2.108;0.019082
2.109;0.018917
2.11;0.021712
2.111;0.021383
2.112;0.021548
2.113;0.021548
2.114;0.024178
2.115;0.025
2.116;0.027137
2.117;0.026972
2.118;0.028781
2.119;0.029931
2.12;0.029603
2.121;0.030918
2.122;0.032397
2.123;0.031575
2.124;0.030918
2.125;0.032397
2.126;0.030425
2.127;0.033384
2.128;0.033219
2.129;0.034206
2.13;0.034863
2.131;0.036014
2.132;0.036343
2.133;0.03848
2.134;0.039137
2.135;0.041439
2.136;0.043082
2.137;0.043082
2.138;0.043082
2.139;0.043411
2.14;0.044726
2.141;0.044233
2.142;0.043904
2.143;0.045384
2.144;0.046699
2.145;0.046535
2.146;0.049494
2.147;0.047192
2.148;0.049822
2.149;0.05311
2.15;0.052617
2.151;0.053932
2.152;0.055083
2.153;0.056069
2.154;0.056398
2.155;0.058371
2.156;0.058206
2.157;0.060179
2.158;0.058206
2.159;0.060836
2.16;0.059028
2.161;0.05985
2.162;0.060508
2.163;0.061494
2.164;0.063467
2.165;0.065111
2.166;0.06659
2.167;0.067412
2.168;0.068891
2.169;0.068563
2.17;0.070535
2.171;0.071028
2.172;0.071028
2.173;0.071522
2.174;0.07185
2.175;0.072344
2.176;0.072344
2.177;0.070864
2.178;0.073823
2.179;0.074809
2.18;0.073987
2.181;0.075138
2.182;0.077111
2.183;0.078426
2.184;0.079741
2.185;0.079905
2.186;0.079741
2.187;0.079412
2.188;0.079577
2.189;0.080563
2.19;0.079577
2.191;0.079084
2.192;0.076782
2.193;0.07859
2.194;0.077275
2.195;0.077111
2.196;0.075796
2.197;0.076289
2.198;0.076125
2.199;0.077111
2.2;0.078097
2.201;0.078426
2.202;0.076782
2.203;0.077275
2.204;0.074645
2.205;0.074316
2.206;0.072672
2.207;0.07185
2.208;0.070535
2.209;0.068234
2.21;0.067248
2.211;0.065111
2.212;0.064453
2.213;0.063467
2.214;0.062316
2.215;0.06248
2.216;0.061658
2.217;0.061165
2.218;0.059357
2.219;0.060014
2.22;0.058371
2.221;0.055905
2.222;0.053603
2.223;0.053932
2.224;0.051302
2.225;0.049822
2.226;0.046699
2.227;0.046041
2.228;0.043904
2.229;0.042589
2.23;0.040617
2.231;0.039795
2.232;0.040617
2.233;0.039795
2.234;0.038808
2.235;0.038644
2.236;0.036507
2.237;0.034863
2.238;0.032726
2.239;0.032397
2.24;0.030425
2.241;0.027301
2.242;0.026972
2.243;0.025493
2.244;0.024835
2.245;0.024178
2.246;0.021054
2.247;0.020232
2.248;0.021383
2.249;0.021054
2.25;0.020561
2.251;0.019082
2.252;0.018917
2.253;0.018917
2.254;0.015136
2.255;0.015958
2.256;0.014808
2.257;0.012506
2.258;0.011356
2.259;0.009876
2.26;0.00889
2.261;0.007575
2.262;0.007575
2.263;0.007246
2.264;0.007081
2.265;0.005273
2.266;0.006753
2.267;0.007081
2.268;0.006424
2.269;0.006095
2.27;0.005766
2.271;0.003794
2.272;0.003465
2.273;0.001985
2.274;0.000999
2.275;-0.000645
2.276;-0.001631
2.277;-0.00196
2.278;-0.002453
2.279;-0.001631
2.28;-0.002289
2.281;-0.003604
2.282;-0.001467
2.283;-0.001302
2.284;-0.00196
2.285;-0.001796
2.286;-0.00196
2.287;-0.002453
2.288;-0.003275
2.289;-0.004919
2.29;-0.006563
2.291;-0.006234
2.292;-0.00722
2.293;-0.007714
2.294;-0.008371
2.295;-0.009357
2.296;-0.009193
2.297;-0.008042
2.298;-0.00722
2.299;-0.007056
2.3;-0.007878
2.301;-0.00722
2.302;-0.006727
2.303;-0.006727
2.304;-0.00722
2.305;-0.007714
2.306;-0.008042
2.307;-0.008371
2.308;-0.010508
2.309;-0.010015
2.31;-0.01133
2.311;-0.01281
2.312;-0.01133
2.313;-0.010179
2.314;-0.011494
2.315;-0.011659
2.316;-0.009193
2.317;-0.007714
2.318;-0.008207
2.319;-0.008864
2.32;-0.009193
2.321;-0.0087
2.322;-0.008864
2.323;-0.008864
2.324;-0.011001
2.325;-0.011001
2.326;-0.01133
2.327;-0.012645
2.328;-0.011001
2.329;-0.011494
2.33;-0.012481
2.331;-0.011988
2.332;-0.009357
2.333;-0.010015
2.334;-0.009686
2.335;-0.009357
2.336;-0.009029
2.337;-0.008371
2.338;-0.009357
2.339;-0.010508
2.34;-0.010344
2.341;-0.010508
2.342;-0.011659
2.343;-0.012152
2.344;-0.012316
2.345;-0.012316
2.346;-0.011494
2.347;-0.010344
2.348;-0.011988
2.349;-0.010673
2.35;-0.010015
2.351;-0.010015
2.352;-0.008864
2.353;-0.009193
2.354;-0.008535
2.355;-0.0087
2.356;-0.008864
2.357;-0.009357
2.358;-0.009851
2.359;-0.010179
2.36;-0.011823
2.361;-0.011166
2.362;-0.009522
2.363;-0.011001
2.364;-0.010179
2.365;-0.011001
2.366;-0.008535
2.367;-0.009029
2.368;-0.008042
2.369;-0.009029
2.37;-0.008042
2.371;-0.008371
2.372;-0.0087
2.373;-0.009193
2.374;-0.010179
2.375;-0.010508
2.376;-0.011166
2.377;-0.009851
2.378;-0.010673
2.379;-0.010179
2.38;-0.010344
2.381;-0.009357
2.382;-0.009193
2.383;-0.008371
2.384;-0.008864
2.385;-0.006398
2.386;-0.006563
2.387;-0.006892
2.388;-0.007385
2.389;-0.00722
2.39;-0.008207
2.391;-0.009522
2.392;-0.007878
2.393;-0.009522
2.394;-0.009193
2.395;-0.010015
2.396;-0.0087
2.397;-0.008864
2.398;-0.007878
2.399;-0.008042
2.4;-0.006727
2.401;-0.006892
2.402;-0.006234
2.403;-0.00607
2.404;-0.007056
2.405;-0.007385
2.406;-0.008207
2.407;-0.00607
2.408;-0.009029
2.409;-0.008535
2.41;-0.010015
2.411;-0.0087
2.412;-0.009193
2.413;-0.008535
2.414;-0.008864
2.415;-0.008207
2.416;-0.006727
2.417;-0.006234
2.418;-0.007549
2.419;-0.005248
2.42;-0.006234
2.421;-0.007056
2.422;-0.00607
2.423;-0.007549
2.424;-0.007549
2.425;-0.009193
2.426;-0.009029
2.427;-0.008864
2.428;-0.010015
2.429;-0.010179
2.43;-0.0087
2.431;-0.008042
2.432;-0.007549
2.433;-0.007714
2.434;-0.007056
2.435;-0.00607
2.436;-0.006727
2.437;-0.00607
2.438;-0.006892
2.439;-0.00722
2.44;-0.008371
2.441;-0.008535
2.442;-0.009029
2.443;-0.009686
2.444;-0.009851
2.445;-0.008535
2.446;-0.0087
2.447;-0.008207
2.448;-0.007878
2.449;-0.007549
2.45;-0.006398
2.451;-0.005741
2.452;-0.00607
2.453;-0.005905
2.454;-0.006563
2.455;-0.007385
2.456;-0.006234
2.457;-0.007385
2.458;-0.007878
2.459;-0.008371
2.46;-0.010015
2.461;-0.008042
2.462;-0.009029
2.463;-0.009029
2.464;-0.007878
2.465;-0.009193
2.466;-0.006563
2.467;-0.00722
2.468;-0.00607
2.469;-0.006398
2.47;-0.006234
2.471;-0.006563
2.472;-0.006563
2.473;-0.007385
2.474;-0.009522
2.475;-0.007878
2.476;-0.008535
2.477;-0.009686
2.478;-0.009686
2.479;-0.009193
2.48;-0.009357
2.481;-0.009357
2.482;-0.008207
2.483;-0.007385
2.484;-0.00722
2.485;-0.006398
2.486;-0.004919
2.487;-0.00722
2.488;-0.007385
2.489;-0.007056
2.49;-0.007056
2.491;-0.007714
2.492;-0.0087
2.493;-0.010179
2.494;-0.009522
2.495;-0.009851
2.496;-0.009193
2.497;-0.009029
2.498;-0.008371
2.499;-0.007714
2.5;-0.006892
2.501;-0.006563
2.502;-0.006727
2.503;-0.006234
2.504;-0.00722
2.505;-0.006234
2.506;-0.007549
2.507;-0.007714
2.508;-0.009029
2.509;-0.009686
2.51;-0.008864
2.511;-0.009193
2.512;-0.009522
2.513;-0.009522
2.514;-0.008371
2.515;-0.008535
2.516;-0.006234
2.517;-0.007056
2.518;-0.005905
2.519;-0.005412
2.52;-0.005741
2.521;-0.006563
2.522;-0.007056
2.523;-0.008042
2.524;-0.0087
2.525;-0.008042
2.526;-0.009193
2.527;-0.010179
2.528;-0.008864
2.529;-0.009357
2.53;-0.008535
2.531;-0.008042
2.532;-0.0087
2.533;-0.007056
2.534;-0.007056
2.535;-0.005248
2.536;-0.006398
2.537;-0.006727
2.538;-0.006727
2.539;-0.005741
2.54;-0.007878
2.541;-0.007385
2.542;-0.009029
2.543;-0.008864
2.544;-0.009357
2.545;-0.009357
2.546;-0.008535
2.547;-0.010015
2.548;-0.007714
2.549;-0.008042
2.55;-0.006234
2.551;-0.006563
2.552;-0.006398
2.553;-0.006563
2.554;-0.006892
2.555;-0.006892
2.556;-0.00722
2.557;-0.008371
2.558;-0.008535
2.559;-0.009522
2.56;-0.009851
2.561;-0.008864
2.562;-0.009029
2.563;-0.0087
2.564;-0.007878
2.565;-0.007714
2.566;-0.006727
2.567;-0.006563
2.568;-0.006398
2.569;-0.005412
2.57;-0.006234
2.571;-0.007714
2.572;-0.007385
2.573;-0.007056
2.574;-0.00722
2.575;-0.009029
2.576;-0.008864
2.577;-0.008864
2.578;-0.010344
2.579;-0.009193
2.58;-0.008535
2.581;-0.008535
2.582;-0.007056
2.583;-0.006727
2.584;-0.006892
2.585;-0.00607
2.586;-0.006234
2.587;-0.00607
2.588;-0.007549
2.589;-0.00722
2.59;-0.007549
2.591;-0.007714
2.592;-0.009029
2.593;-0.008535
2.594;-0.009193
2.595;-0.007549
2.596;-0.00722
2.597;-0.007878
2.598;-0.006234
2.599;-0.005905
2.6;-0.004755
2.601;-0.004919
2.602;-0.004426
2.603;-0.004261
2.604;-0.006727
2.605;-0.006563
2.606;-0.006727
2.607;-0.00722
2.608;-0.007878
2.609;-0.008042
2.61;-0.008371
2.611;-0.008864
2.612;-0.008535
2.613;-0.007878
2.614;-0.007549
2.615;-0.00722
2.616;-0.006727
2.617;-0.006563
2.618;-0.006563
2.619;-0.004919
2.62;-0.005741
2.621;-0.007549
2.622;-0.007056
2.623;-0.005741
2.624;-0.008207
2.625;-0.009522
2.626;-0.008535
2.627;-0.008864
2.628;-0.008535
2.629;-0.008371
2.63;-0.008864
2.631;-0.008042
2.632;-0.007549
2.633;-0.006563
2.634;-0.00607
2.635;-0.003933
2.636;-0.005248
2.637;-0.005576
2.638;-0.005083
2.639;-0.005248
2.64;-0.005741
2.641;-0.006234
2.642;-0.005905
2.643;-0.006563
2.644;-0.005741
2.645;-0.005248
2.646;-0.00459
2.647;-0.003439
2.648;-0.003604
2.649;-0.001138
2.65;-0.001796
2.651;-0.000645
2.652;-0.000645
2.653;-0.00048
2.654;-0.000152
2.655;-0.000645
2.656;-0.001302
2.657;-0.000645
2.658;-0.002453
2.659;-0.002289
2.66;-0.00196
2.661;-0.000974
2.662;-0.000809
2.663;1.27E-05
2.664;1.27E-05
2.665;0.001328
2.666;0.001985
2.667;0.002479
2.668;0.004287
2.669;0.003629
2.67;0.004616
2.671;0.003136
2.672;0.00478
2.673;0.00478
2.674;0.004944
2.675;0.005109
2.676;0.004944
2.677;0.005438
2.678;0.005766
2.679;0.006753
2.68;0.007081
2.681;0.01004
2.682;0.009054
2.683;0.011191
2.684;0.011849
2.685;0.012835
2.686;0.012671
2.687;0.013328
2.688;0.013821
2.689;0.014479
2.69;0.013657
2.691;0.013986
2.692;0.014315
2.693;0.014315
2.694;0.013657
2.695;0.013821
2.696;0.015794
2.697;0.016616
2.698;0.015794
2.699;0.017109
2.7;0.017931
2.701;0.017931
2.702;0.017602
2.703;0.017274
2.704;0.015465
2.705;0.014643
2.706;0.013821
2.707;0.013821
2.708;0.012013
2.709;0.011849
2.71;0.01004
2.711;0.010698
2.712;0.009383
2.713;0.009218
2.714;0.009712
2.715;0.01004
2.716;0.00889
2.717;0.009054
2.718;0.009876
2.719;0.009383
2.72;0.007739
2.721;0.00741
2.722;0.006259
2.723;0.006424
2.724;0.005438
2.725;0.005109
2.726;0.003958
2.727;0.003136
2.728;0.001985
2.729;0.002479
2.73;0.002972
2.731;0.002972
2.732;0.002643
2.733;0.003958
2.734;0.002479
2.735;0.002807
2.736;0.001985
2.737;0.003136
2.738;0.00067
2.739;0.001163
2.74;1.27E-05
2.741;-0.001467
2.742;-0.002453
2.743;-0.003111
2.744;-0.004097
2.745;-0.004097
2.746;-0.003439
2.747;-0.003604
2.748;-0.002946
2.749;-0.003439
2.75;-0.002946
2.751;-0.002782
2.752;-0.002782
2.753;-0.003604
2.754;-0.004261
2.755;-0.004261
2.756;-0.003933
2.757;-0.004755
2.758;-0.005412
2.759;-0.007056
2.76;-0.008207
2.761;-0.00722
2.762;-0.007549
2.763;-0.007385
2.764;-0.007056
2.765;-0.006892
2.766;-0.005248
2.767;-0.005905
2.768;-0.005741
2.769;-0.005412
2.77;-0.006234
2.771;-0.00607
2.772;-0.006398
2.773;-0.007056
2.774;-0.007878
2.775;-0.007714
2.776;-0.0087
2.777;-0.009193
2.778;-0.009851
2.779;-0.0087
2.78;-0.009193
2.781;-0.008535
2.782;-0.007878
2.783;-0.008371
2.784;-0.007878
2.785;-0.007549
2.786;-0.007714
2.787;-0.009193
2.788;-0.011494
2.789;-0.011659
2.79;-0.010837
2.791;-0.011823
2.792;-0.013467
2.793;-0.013138
2.794;-0.015111
2.795;-0.01544
2.796;-0.01659
2.797;-0.016919
2.798;-0.018728
2.799;-0.018892
2.8;-0.023002
2.801;-0.02218
2.802;-0.024481
2.803;-0.027111
2.804;-0.02892
2.805;-0.031879
2.806;-0.035495
2.807;-0.036646
2.808;-0.039112
2.809;-0.039769
2.81;-0.041249
2.811;-0.041906
2.812;-0.040756
2.813;-0.039112
2.814;-0.036481
2.815;-0.030892
2.816;-0.026289
2.817;-0.019878
2.818;-0.012481
2.819;-0.003768
2.82;0.006753
2.821;0.015301
2.822;0.025822
2.823;0.036178
2.824;0.048179
2.825;0.061494
2.826;0.073494
2.827;0.085988
2.828;0.097988
2.829;0.111797
2.83;0.12577
2.831;0.138099
2.832;0.149442
2.833;0.16062
2.834;0.170977
2.835;0.179689
2.836;0.184785
2.837;0.188402
2.838;0.188073
2.839;0.184785
2.84;0.178867
2.841;0.168182
2.842;0.153716
2.843;0.139743
2.844;0.123468
2.845;0.108838
2.846;0.095194
2.847;0.081714
2.848;0.070535
2.849;0.060672
2.85;0.053439
2.851;0.044562
2.852;0.036836
2.853;0.028452
2.854;0.021876
2.855;0.014315
2.856;0.010534
2.857;0.00478
2.858;0.000342
2.859;-0.003111
2.86;-0.007056
2.861;-0.007714
2.862;-0.011988
2.863;-0.012152
2.864;-0.013138
2.865;-0.012645
2.866;-0.013303
2.867;-0.011494
2.868;-0.013138
2.869;-0.012316
2.87;-0.013467
2.871;-0.013303
2.872;-0.011988
2.873;-0.012645
2.874;-0.011659
2.875;-0.010344
2.876;-0.009686
2.877;-0.0087
2.878;-0.005576
2.879;-0.003439
2.88;-0.003111
2.881;0.001328
2.882;0.001492
2.883;0.004616
2.884;0.005931
2.885;0.005109
2.886;0.006753
2.887;0.007081
2.888;0.00741
2.889;0.006095
2.89;0.006259
2.891;0.005602
2.892;0.004287
2.893;0.004616
2.894;0.003301
2.895;0.002972
2.896;0.002643
2.897;0.002314
2.898;0.003136
2.899;0.003794
2.9;0.004287
2.901;0.004616
2.902;0.003136
2.903;0.001821
2.904;0.001821
2.905;0.00215
2.906;0.001985
2.907;0.001821
2.908;-0.00048
2.909;0.000506
2.91;-0.000152
2.911;-0.001631
2.912;-0.001138
2.913;-0.000809
2.914;0.000506
2.915;0.001492
2.916;0.001985
2.917;0.002807
2.918;0.003794
2.919;0.003958
2.92;0.003301
2.921;0.003958
2.922;0.002643
2.923;0.001985
2.924;0.00215
2.925;0.002314
2.926;0.001163
2.927;0.001657
2.928;0.001328
2.929;0.00215
2.93;0.004616
2.931;0.003958
2.932;0.00478
2.933;0.006095
2.934;0.006753
2.935;0.009383
2.936;0.008561
2.937;0.008068
2.938;0.006259
2.939;0.008725
2.94;0.007739
2.941;0.006753
2.942;0.006753
2.943;0.007246
2.944;0.009218
2.945;0.009383
2.946;0.008725
2.947;0.01004
2.948;0.011849
2.949;0.012506
2.95;0.013821
2.951;0.013493
2.952;0.015465
2.953;0.016123
2.954;0.014643
2.955;0.014643
2.956;0.015794
2.957;0.016287
2.958;0.015136
2.959;0.015301
2.96;0.015958
2.961;0.016616
2.962;0.01826
2.963;0.019082
2.964;0.02089
2.965;0.022041
2.966;0.023191
2.967;0.024342
2.968;0.024013
2.969;0.026479
2.97;0.024342
2.971;0.025822
2.972;0.025657
2.973;0.026972
2.974;0.027466
2.975;0.025657
2.976;0.025329
2.977;0.026972
2.978;0.029603
2.979;0.031082
2.98;0.029767
2.981;0.030753
2.982;0.03437
2.983;0.035356
2.984;0.036507
2.985;0.036014
2.986;0.037329
2.987;0.03848
2.988;0.037986
2.989;0.038644
2.99;0.03848
2.991;0.039795
2.992;0.039959
2.993;0.039466
2.994;0.040452
2.995;0.041603
2.996;0.042918
2.997;0.043576
2.998;0.044891
2.999;0.047521
3;0.048014
3.001;0.048672
3.002;0.051138
3.003;0.051795
3.004;0.052453
3.005;0.050809
3.006;0.051631
3.007;0.052453
3.008;0.052946
3.009;0.052781
3.01;0.053768
3.011;0.055905
3.012;0.058206
3.013;0.059028
3.014;0.058371
3.015;0.060343
3.016;0.060672
3.017;0.062973
3.018;0.063795
3.019;0.064782
3.02;0.065111
3.021;0.066426
3.022;0.065111
3.023;0.067248
3.024;0.066097
3.025;0.066919
3.026;0.06659
3.027;0.069056
3.028;0.068563
3.029;0.070207
3.03;0.069549
3.031;0.0707
3.032;0.07333
3.033;0.075631
3.034;0.075138
3.035;0.076289
3.036;0.076782
3.037;0.077111
3.038;0.07744
3.039;0.07596
3.04;0.078262
3.041;0.077933
3.042;0.076946
3.043;0.074809
3.044;0.07744
3.045;0.077768
3.046;0.078262
3.047;0.078262
3.048;0.078262
3.049;0.078919
3.05;0.078919
3.051;0.078755
3.052;0.078755
3.053;0.080234
3.054;0.076782
3.055;0.076782
3.056;0.076782
3.057;0.076946
3.058;0.073823
3.059;0.073001
3.06;0.07185
3.061;0.072508
3.062;0.071357
3.063;0.068727
3.064;0.069549
3.065;0.069549
3.066;0.069056
3.067;0.068234
3.068;0.067083
3.069;0.065768
3.07;0.064617
3.071;0.063138
3.072;0.061165
3.073;0.060179
3.074;0.058371
3.075;0.056069
3.076;0.05459
3.077;0.053275
3.078;0.052453
3.079;0.049658
3.08;0.049
3.081;0.049
3.082;0.048179
3.083;0.048343
3.084;0.04522
3.085;0.045713
3.086;0.044069
3.087;0.041932
3.088;0.039959
3.089;0.038973
3.09;0.036836
3.091;0.036507
3.092;0.033055
3.093;0.032726
3.094;0.030918
3.095;0.030096
3.096;0.028781
3.097;0.028123
3.098;0.027794
3.099;0.027301
3.1;0.028288
3.101;0.026972
3.102;0.025164
3.103;0.022863
3.104;0.02237
3.105;0.020561
3.106;0.020561
3.107;0.017274
3.108;0.016123
3.109;0.014643
3.11;0.013657
3.111;0.012835
3.112;0.012177
3.113;0.012506
3.114;0.010698
3.115;0.011027
3.116;0.010369
3.117;0.011191
3.118;0.010205
3.119;0.009547
3.12;0.007575
3.121;0.007246
3.122;0.005273
3.123;0.004944
3.124;0.002643
3.125;0.002972
3.126;0.002314
3.127;0.001163
3.128;0.000999
3.129;1.27E-05
3.13;0.001492
3.131;0.00067
3.132;0.001657
3.133;-0.000645
3.134;0.000835
3.135;0.000999
3.136;1.27E-05
3.137;-0.001796
3.138;-0.003111
3.139;-0.002124
3.14;-0.003768
3.141;-0.003768
3.142;-0.005248
3.143;-0.005905
3.144;-0.006563
3.145;-0.006563
3.146;-0.007714
3.147;-0.006563
3.148;-0.006563
3.149;-0.005248
3.15;-0.005741
3.151;-0.005905
3.152;-0.006727
3.153;-0.006727
3.154;-0.007549
3.155;-0.008864
3.156;-0.009193
3.157;-0.009029
3.158;-0.008535
3.159;-0.011494
3.16;-0.010837
3.161;-0.010508
3.162;-0.009686
3.163;-0.010344
3.164;-0.010837
3.165;-0.010508
3.166;-0.008371
3.167;-0.010015
3.168;-0.008535
3.169;-0.007714
3.17;-0.008371
3.171;-0.010179
3.172;-0.009193
3.173;-0.009686
3.174;-0.010508
3.175;-0.011659
3.176;-0.011659
3.177;-0.01281
3.178;-0.012481
3.179;-0.012316
3.18;-0.01133
3.181;-0.011001
3.182;-0.012152
3.183;-0.011494
3.184;-0.008535
3.185;-0.009029
3.186;-0.009357
3.187;-0.010179
3.188;-0.011001
3.189;-0.009193
3.19;-0.010179
3.191;-0.010673
3.192;-0.011659
3.193;-0.01281
3.194;-0.012316
3.195;-0.012152
3.196;-0.011001
3.197;-0.012316
3.198;-0.01133
3.199;-0.010015
3.2;-0.009357
3.201;-0.0087
3.202;-0.009193
3.203;-0.008371
3.204;-0.009851
3.205;-0.010673
3.206;-0.010837
3.207;-0.011001
3.208;-0.011659
3.209;-0.011659
3.21;-0.012152
3.211;-0.009193
3.212;-0.01281
3.213;-0.011166
3.214;-0.011001
3.215;-0.0087
3.216;-0.0087
3.217;-0.007878
3.218;-0.009193
3.219;-0.006727
3.22;-0.008864
3.221;-0.0087
3.222;-0.010344
3.223;-0.009522
3.224;-0.011001
3.225;-0.010179
3.226;-0.010673
3.227;-0.012974
3.228;-0.010344
3.229;-0.010344
3.23;-0.009357
3.231;-0.010673
3.232;-0.010015
3.233;-0.0087
3.234;-0.007714
3.235;-0.007714
3.236;-0.007714
3.237;-0.007878
3.238;-0.008042
3.239;-0.008535
3.24;-0.009686
3.241;-0.0087
3.242;-0.009686
3.243;-0.008864
3.244;-0.009357
3.245;-0.009357
3.246;-0.009357
3.247;-0.008864
3.248;-0.008371
3.249;-0.007714
3.25;-0.006892
3.251;-0.004919
3.252;-0.005905
3.253;-0.00607
3.254;-0.007385
3.255;-0.0087
3.256;-0.006398
3.257;-0.008864
3.258;-0.009029
3.259;-0.008207
3.26;-0.009357
3.261;-0.010508
3.262;-0.009029
3.263;-0.007385
3.264;-0.008207
3.265;-0.00722
3.266;-0.006563
3.267;-0.006234
3.268;-0.005576
3.269;-0.006398
3.27;-0.005905
3.271;-0.006727
3.272;-0.00722
3.273;-0.008042
3.274;-0.007714
3.275;-0.008042
3.276;-0.009522
3.277;-0.009193
3.278;-0.009357
3.279;-0.008864
3.28;-0.009193
3.281;-0.0087
3.282;-0.007385
3.283;-0.009029
3.284;-0.006234
3.285;-0.006563
3.286;-0.005905
3.287;-0.007385
3.288;-0.007056
3.289;-0.008371
3.29;-0.007549
3.291;-0.010344
3.292;-0.009029
3.293;-0.009193
3.294;-0.009193
3.295;-0.009357
3.296;-0.009193
3.297;-0.009357
3.298;-0.007549
3.299;-0.005412
3.3;-0.006398
3.301;-0.005576
3.302;-0.006234
3.303;-0.006398
3.304;-0.006727
3.305;-0.006727
3.306;-0.0087
3.307;-0.009193
3.308;-0.007878
3.309;-0.009522
3.31;-0.009522
3.311;-0.009686
3.312;-0.009357
3.313;-0.009029
3.314;-0.008371
3.315;-0.007385
3.316;-0.007385
3.317;-0.006892
3.318;-0.005905
3.319;-0.005741
3.32;-0.005412
3.321;-0.007878
3.322;-0.00722
3.323;-0.007385
3.324;-0.007714
3.325;-0.0087
3.326;-0.009686
3.327;-0.008535
3.328;-0.007549
3.329;-0.009522
3.33;-0.0087
3.331;-0.007878
3.332;-0.007385
3.333;-0.006892
3.334;-0.005905
3.335;-0.004426
3.336;-0.006398
3.337;-0.007385
3.338;-0.007714
3.339;-0.00722
3.34;-0.009193
3.341;-0.009851
3.342;-0.009357
3.343;-0.009851
3.344;-0.009357
3.345;-0.009686
3.346;-0.007714
3.347;-0.007056
3.348;-0.008864
3.349;-0.007714
3.35;-0.006892
3.351;-0.006727
3.352;-0.005741
3.353;-0.005576
3.354;-0.006727
3.355;-0.009357
3.356;-0.008535
3.357;-0.008371
3.358;-0.009193
3.359;-0.009029
3.36;-0.009851
3.361;-0.008371
3.362;-0.009851
3.363;-0.0087
3.364;-0.009357
3.365;-0.006727
3.366;-0.007056
3.367;-0.006234
3.368;-0.005905
3.369;-0.005905
3.37;-0.008371
3.371;-0.006398
3.372;-0.007714
3.373;-0.007878
3.374;-0.007714
3.375;-0.009851
3.376;-0.009851
3.377;-0.009029
3.378;-0.0087
3.379;-0.009686
3.38;-0.008864
3.381;-0.007385
3.382;-0.006892
3.383;-0.006892
3.384;-0.005576
3.385;-0.007878
3.386;-0.006563
3.387;-0.006563
3.388;-0.006234
3.389;-0.007878
3.39;-0.008371
3.391;-0.008207
3.392;-0.009029
3.393;-0.009522
3.394;-0.009357
3.395;-0.009029
3.396;-0.0087
3.397;-0.008864
3.398;-0.007714
3.399;-0.006563
3.4;-0.005576
3.401;-0.00607
3.402;-0.005576
3.403;-0.005248
3.404;-0.007385
3.405;-0.0087
3.406;-0.007714
3.407;-0.008042
3.408;-0.009522
3.409;-0.009029
3.41;-0.009029
3.411;-0.008864
3.412;-0.007878
3.413;-0.009029
3.414;-0.007714
3.415;-0.007714
3.416;-0.00607
3.417;-0.005741
3.418;-0.005741
3.419;-0.006563
3.42;-0.006234
3.421;-0.006727
3.422;-0.008042
3.423;-0.008371
3.424;-0.008864
3.425;-0.008207
3.426;-0.009029
3.427;-0.009029
3.428;-0.008535
3.429;-0.008207
3.43;-0.009357
3.431;-0.008371
3.432;-0.008042
3.433;-0.008042
3.434;-0.006234
3.435;-0.005248
3.436;-0.006398
3.437;-0.006892
3.438;-0.007714
3.439;-0.007385
3.44;-0.007714
3.441;-0.009522
3.442;-0.008042
3.443;-0.0087
3.444;-0.009193
3.445;-0.009193
3.446;-0.008864
3.447;-0.009029
3.448;-0.007385
3.449;-0.006892
3.45;-0.007056
3.451;-0.00459
3.452;-0.00607
3.453;-0.004755
3.454;-0.005741
3.455;-0.00607
3.456;-0.005905
3.457;-0.006234
3.458;-0.007385
3.459;-0.007549
3.46;-0.009357
3.461;-0.007714
3.462;-0.009193
3.463;-0.007549
3.464;-0.00722
3.465;-0.00722
3.466;-0.007056
3.467;-0.005412
3.468;-0.005412
3.469;-0.005083
3.47;-0.005741
3.471;-0.006563
3.472;-0.007056
3.473;-0.007714
3.474;-0.007385
3.475;-0.009686
3.476;-0.009686
3.477;-0.009193
3.478;-0.008535
3.479;-0.009029
3.48;-0.009357
3.481;-0.009029
3.482;-0.007878
3.483;-0.008042
3.484;-0.004919
3.485;-0.00722
3.486;-0.006398
3.487;-0.006892
3.488;-0.006563
3.489;-0.008207
3.49;-0.008535
3.491;-0.006892
3.492;-0.008042
3.493;-0.008042
3.494;-0.007714
3.495;-0.006727
3.496;-0.008042
3.497;-0.005248
3.498;-0.005741
3.499;-0.003933
3.5;-0.004097
3.501;-0.002124
3.502;-0.002782
3.503;-0.002617
3.504;-0.001631
3.505;-0.002289
3.506;-0.003439
3.507;-0.003275
3.508;-0.003275
3.509;-0.003933
3.51;-0.003933
3.511;-0.002617
3.512;-0.002453
3.513;-0.004097
3.514;-0.002453
3.515;-0.001467
3.516;-0.00048
3.517;0.001821
3.518;0.001328
3.519;0.00215
3.52;0.001821
3.521;0.000999
3.522;0.000342
3.523;0.001821
3.524;0.000506
3.525;0.00215
3.526;0.001492
3.527;0.00067
3.528;0.001657
3.529;0.003629
3.53;0.004451
3.531;0.004616
3.532;0.005602
3.533;0.006259
3.534;0.009218
3.535;0.009876
3.536;0.009547
3.537;0.010534
3.538;0.011356
3.539;0.008561
3.54;0.009547
3.541;0.010369
3.542;0.008561
3.543;0.009383
3.544;0.011027
3.545;0.011684
3.546;0.012013
3.547;0.012999
3.548;0.014972
3.549;0.016287
3.55;0.016452
3.551;0.017438
3.552;0.017438
3.553;0.017602
3.554;0.015958
3.555;0.015301
3.556;0.016123
3.557;0.014808
3.558;0.013986
3.559;0.013328
3.56;0.012506
3.561;0.013657
3.562;0.011027
3.563;0.012342
3.564;0.011191
3.565;0.012013
3.566;0.011684
3.567;0.013657
3.568;0.012506
3.569;0.012342
3.57;0.011849
3.571;0.010369
3.572;0.008232
3.573;0.007246
3.574;0.006917
3.575;0.006424
3.576;0.005766
3.577;0.003629
3.578;0.00478
3.579;0.005602
3.58;0.005273
3.581;0.005766
3.582;0.004451
3.583;0.003794
3.584;0.003465
3.585;0.003958
3.586;0.004122
3.587;0.003958
3.588;0.002972
3.589;0.00215
3.59;0.00067
3.591;-0.000316
3.592;-0.002289
3.593;-0.000974
3.594;-0.001631
3.595;-0.001138
3.596;-0.002617
3.597;-0.003275
3.598;-0.001467
3.599;-0.002289
3.6;-0.000974
3.601;-0.000152
3.602;0.000177
3.603;-0.001302
3.604;-0.003275
3.605;-0.003439
3.606;-0.00459
3.607;-0.005905
3.608;-0.005412
3.609;-0.00459
3.61;-0.006892
3.611;-0.00722
3.612;-0.00722
3.613;-0.005741
3.614;-0.005576
3.615;-0.005576
3.616;-0.005248
3.617;-0.005412
3.618;-0.005905
3.619;-0.005576
3.62;-0.005741
3.621;-0.006727
3.622;-0.006727
3.623;-0.00722
3.624;-0.00722
3.625;-0.008864
3.626;-0.010015
3.627;-0.009686
3.628;-0.008207
3.629;-0.008535
3.63;-0.007714
3.631;-0.0087
3.632;-0.007385
3.633;-0.007549
3.634;-0.00607
3.635;-0.006234
3.636;-0.006727
3.637;-0.008042
3.638;-0.008042
3.639;-0.009193
3.64;-0.010015
3.641;-0.011494
3.642;-0.011659
3.643;-0.011001
3.644;-0.011988
3.645;-0.012974
3.646;-0.013631
3.647;-0.011988
3.648;-0.011988
3.649;-0.013138
3.65;-0.011823
3.651;-0.01396
3.652;-0.013631
3.653;-0.015604
3.654;-0.017577
3.655;-0.020043
3.656;-0.024974
3.657;-0.025796
3.658;-0.027605
3.659;-0.031714
3.66;-0.033851
3.661;-0.03418
3.662;-0.03681
3.663;-0.039112
3.664;-0.038783
3.665;-0.039112
3.666;-0.039276
3.667;-0.03829
3.668;-0.037303
3.669;-0.036646
3.67;-0.034344
3.671;-0.031714
3.672;-0.027276
3.673;-0.020865
3.674;-0.014782
3.675;-0.005412
3.676;0.002314
3.677;0.012506
3.678;0.023027
3.679;0.035356
3.68;0.048836
3.681;0.061823
3.682;0.075138
3.683;0.088454
3.684;0.102755
3.685;0.114098
3.686;0.126921
3.687;0.13925
3.688;0.150921
3.689;0.159963
3.69;0.16884
3.691;0.175908
3.692;0.182648
3.693;0.185607
3.694;0.186429
3.695;0.181333
3.696;0.177388
3.697;0.16736
3.698;0.155195
3.699;0.141551
3.7;0.124948
3.701;0.111468
3.702;0.096509
3.703;0.082864
3.704;0.07185
3.705;0.05985
3.706;0.050809
3.707;0.041603
3.708;0.033384
3.709;0.024507
3.71;0.018589
3.711;0.013164
3.712;0.007081
3.713;0.003465
3.714;1.27E-05
3.715;-0.002946
3.716;-0.005412
3.717;-0.00607
3.718;-0.00722
3.719;-0.009029
3.72;-0.012481
3.721;-0.012316
3.722;-0.013796
3.723;-0.014618
3.724;-0.015933
3.725;-0.015604
3.726;-0.016426
3.727;-0.015769
3.728;-0.014782
3.729;-0.013303
3.73;-0.012152
3.731;-0.009357
3.732;-0.006727
3.733;-0.00459
3.734;-0.003275
3.735;-0.00196
3.736;-0.000645
3.737;0.002479
3.738;0.002479
3.739;0.002807
3.74;0.002479
3.741;0.004122
3.742;0.003629
3.743;0.004451
3.744;0.004451
3.745;0.004287
3.746;0.003794
3.747;0.005931
3.748;0.006753
3.749;0.006095
3.75;0.005438
3.751;0.006917
3.752;0.005766
3.753;0.004944
3.754;0.003136
3.755;0.003465
3.756;0.002972
3.757;0.000999
3.758;-0.000809
3.759;-0.00048
3.76;-0.001138
3.761;-0.000152
3.762;0.000342
3.763;1.27E-05
3.764;-0.000152
3.765;0.000506
3.766;0.000342
3.767;0.002643
3.768;0.001492
3.769;0.001328
3.77;0.001657
3.771;0.001985
3.772;0.001163
3.773;0.000999
3.774;0.000342
3.775;0.001163
3.776;0.000506
3.777;0.000342
3.778;0.000999
3.779;0.001985
3.78;0.001492
3.781;0.002972
3.782;0.003629
3.783;0.002972
3.784;0.004122
3.785;0.005766
3.786;0.006753
3.787;0.006753
3.788;0.005109
3.789;0.005931
3.79;0.005438
3.791;0.004451
3.792;0.005109
3.793;0.005438
3.794;0.005438
3.795;0.005602
3.796;0.006917
3.797;0.008232
3.798;0.007081
3.799;0.008725
3.8;0.011684
3.801;0.011684
3.802;0.012177
3.803;0.012342
3.804;0.012177
3.805;0.013328
3.806;0.013164
3.807;0.011684
3.808;0.013657
3.809;0.012999
3.81;0.012342
3.811;0.01415
3.812;0.015136
3.813;0.015465
3.814;0.016945
3.815;0.017602
3.816;0.01826
3.817;0.020232
3.818;0.021383
3.819;0.021219
3.82;0.021712
3.821;0.022698
3.822;0.022205
3.823;0.021383
3.824;0.022863
3.825;0.022205
3.826;0.022205
3.827;0.024835
3.828;0.024342
3.829;0.025329
3.83;0.026972
3.831;0.028945
3.832;0.028123
3.833;0.030096
3.834;0.03289
3.835;0.033877
3.836;0.033548
3.837;0.033712
3.838;0.033712
3.839;0.034534
3.84;0.034206
3.841;0.034206
3.842;0.035521
3.843;0.035027
3.844;0.035521
3.845;0.036507
3.846;0.038644
3.847;0.038808
3.848;0.03963
3.849;0.041603
3.85;0.044562
3.851;0.04522
3.852;0.044726
3.853;0.046206
3.854;0.046206
3.855;0.046699
3.856;0.047357
3.857;0.047521
3.858;0.048507
3.859;0.048672
3.86;0.049494
3.861;0.051959
3.862;0.051959
3.863;0.051302
3.864;0.053768
3.865;0.056069
3.866;0.05722
3.867;0.059028
3.868;0.060508
3.869;0.060343
3.87;0.061001
3.871;0.061658
3.872;0.060836
3.873;0.060672
3.874;0.061823
3.875;0.062645
3.876;0.063302
3.877;0.063795
3.878;0.062973
3.879;0.065275
3.88;0.068398
3.881;0.06807
3.882;0.069056
3.883;0.071193
3.884;0.073001
3.885;0.072837
3.886;0.073659
3.887;0.073659
3.888;0.073659
3.889;0.073823
3.89;0.073494
3.891;0.074152
3.892;0.074809
3.893;0.074152
3.894;0.076453
3.895;0.077933
3.896;0.077275
3.897;0.077275
3.898;0.077768
3.899;0.079248
3.9;0.080234
3.901;0.080892
3.902;0.081056
3.903;0.080892
3.904;0.079412
3.905;0.080234
3.906;0.07859
3.907;0.077604
3.908;0.076289
3.909;0.074316
3.91;0.076125
3.911;0.076289
3.912;0.075631
3.913;0.075467
3.914;0.074316
3.915;0.075467
3.916;0.074974
3.917;0.075467
3.918;0.073987
3.919;0.073494
3.92;0.072837
3.921;0.071028
3.922;0.069056
3.923;0.066426
3.924;0.064617
3.925;0.064289
3.926;0.061658
3.927;0.059193
3.928;0.061001
3.929;0.059686
3.93;0.058042
3.931;0.057713
3.932;0.056891
3.933;0.056069
3.934;0.055905
3.935;0.054918
3.936;0.052946
3.937;0.051466
3.938;0.048507
3.939;0.046699
3.94;0.044069
3.941;0.042754
3.942;0.040123
3.943;0.039795
3.944;0.040288
3.945;0.038151
3.946;0.036507
3.947;0.037
3.948;0.034863
3.949;0.035849
3.95;0.034699
3.951;0.034041
3.952;0.03174
3.953;0.031082
3.954;0.028452
3.955;0.029438
3.956;0.025329
3.957;0.024342
3.958;0.02352
3.959;0.02089
3.96;0.019739
3.961;0.019246
3.962;0.018424
3.963;0.017274
3.964;0.017109
3.965;0.017602
3.966;0.017274
3.967;0.015958
3.968;0.016452
3.969;0.015301
3.97;0.013986
3.971;0.012342
3.972;0.010205
3.973;0.009547
3.974;0.009218
3.975;0.006095
3.976;0.005931
3.977;0.005766
3.978;0.004944
3.979;0.005273
3.98;0.003465
3.981;0.005109
3.982;0.004451
3.983;0.003136
3.984;0.003629
3.985;0.003794
3.986;0.002807
3.987;0.00215
3.988;0.000999
3.989;-0.000316
3.99;-0.000645
3.991;-0.001796
3.992;-0.002617
3.993;-0.003933
3.994;-0.003604
3.995;-0.004426
3.996;-0.003933
3.997;-0.002289
3.998;-0.002617
3.999;-0.002782
4;-0.002782
4.001;-0.002617
4.002;-0.003439
4.003;-0.003604
4.004;-0.003768
4.005;-0.005576
4.006;-0.007549
4.007;-0.007714
4.008;-0.008371
4.009;-0.0087
4.01;-0.009029
4.011;-0.009522
4.012;-0.009357
4.013;-0.009357
4.014;-0.008042
4.015;-0.006398
4.016;-0.008371
4.017;-0.006563
4.018;-0.006398
4.019;-0.005412
4.02;-0.0087
4.021;-0.009851
4.022;-0.008864
4.023;-0.010837
4.024;-0.010344
4.025;-0.01133
4.026;-0.011494
4.027;-0.010508
4.028;-0.010344
4.029;-0.011001
4.03;-0.009851
4.031;-0.009851
4.032;-0.0087
4.033;-0.007878
4.034;-0.007878
4.035;-0.007714
4.036;-0.0087
4.037;-0.009193
4.038;-0.010344
4.039;-0.011988
4.04;-0.012481
4.041;-0.011659
4.042;-0.011001
4.043;-0.012481
4.044;-0.012316
4.045;-0.011494
4.046;-0.010508
4.047;-0.009851
4.048;-0.009357
4.049;-0.008371
4.05;-0.0087
4.051;-0.007878
4.052;-0.008864
4.053;-0.007878
4.054;-0.010015
4.055;-0.011001
4.056;-0.011166
4.057;-0.010508
4.058;-0.011659
4.059;-0.011823
4.06;-0.011988
4.061;-0.010673
4.062;-0.012481
4.063;-0.01133
4.064;-0.010673
4.065;-0.009851
4.066;-0.009193
4.067;-0.0087
4.068;-0.007056
4.069;-0.008042
4.07;-0.008535
4.071;-0.008371
4.072;-0.009029
4.073;-0.010673
4.074;-0.010179
4.075;-0.011166
4.076;-0.011001
4.077;-0.010673
4.078;-0.009522
4.079;-0.010015
4.08;-0.009686
4.081;-0.009522
4.082;-0.008042
4.083;-0.007878
4.084;-0.007549
4.085;-0.008042
4.086;-0.008371
4.087;-0.008042
4.088;-0.009522
4.089;-0.009357
4.09;-0.009193
4.091;-0.009357
4.092;-0.010015
4.093;-0.009686
4.094;-0.009193
4.095;-0.009522
4.096;-0.010015
4.097;-0.008371
4.098;-0.007056
4.099;-0.008371
4.1;-0.006234
4.101;-0.004755
4.102;-0.006234
4.103;-0.006234
4.104;-0.007385
4.105;-0.006234
4.106;-0.008371
4.107;-0.0087
4.108;-0.007878
4.109;-0.008864
4.11;-0.009357
4.111;-0.0087
4.112;-0.007714
4.113;-0.006727
4.114;-0.007385
4.115;-0.00722
4.116;-0.006398
4.117;-0.005905
4.118;-0.005248
4.119;-0.00607
4.12;-0.005905
4.121;-0.00607
4.122;-0.007385
4.123;-0.007878
4.124;-0.007878
4.125;-0.008371
4.126;-0.009029
4.127;-0.008864
4.128;-0.007714
4.129;-0.009029
4.13;-0.008042
4.131;-0.008042
4.132;-0.007385
4.133;-0.006727
4.134;-0.006398
4.135;-0.006234
4.136;-0.006234
4.137;-0.007056
4.138;-0.007385
4.139;-0.00722
4.14;-0.008042
4.141;-0.009193
4.142;-0.009029
4.143;-0.008535
4.144;-0.008207
4.145;-0.009193
4.146;-0.007714
4.147;-0.00722
4.148;-0.007056
4.149;-0.00722
4.15;-0.00607
4.151;-0.005083
4.152;-0.005905
4.153;-0.006563
4.154;-0.005905
4.155;-0.007056
4.156;-0.007714
4.157;-0.007549
4.158;-0.006727
4.159;-0.009029
4.16;-0.009357
4.161;-0.009029
4.162;-0.007714
4.163;-0.007549
4.164;-0.007549
4.165;-0.006234
4.166;-0.006398
4.167;-0.00607
4.168;-0.005741
4.169;-0.004919
4.17;-0.006892
4.171;-0.00722
4.172;-0.007056
4.173;-0.00722
4.174;-0.007549
4.175;-0.0087
4.176;-0.009029
4.177;-0.008042
4.178;-0.008535
4.179;-0.008371
4.18;-0.008371
4.181;-0.006563
4.182;-0.005905
4.183;-0.006892
4.184;-0.005576
4.185;-0.005412
4.186;-0.005412
4.187;-0.005576
4.188;-0.005412
4.189;-0.008535
4.19;-0.008371
4.191;-0.008207
4.192;-0.009522
4.193;-0.009193
4.194;-0.008864
4.195;-0.008042
4.196;-0.008371
4.197;-0.008042
4.198;-0.008535
4.199;-0.00607
4.2;-0.005412
4.201;-0.005248
4.202;-0.006234
4.203;-0.006563
4.204;-0.006398
4.205;-0.006727
4.206;-0.008042
4.207;-0.007714
4.208;-0.008207
4.209;-0.009851
4.21;-0.008535
4.211;-0.008371
4.212;-0.009029
4.213;-0.009029
4.214;-0.006727
4.215;-0.007056
4.216;-0.00607
4.217;-0.005248
4.218;-0.004919
4.219;-0.005248
4.22;-0.00607
4.221;-0.006398
4.222;-0.006892
4.223;-0.0087
4.224;-0.008535
4.225;-0.008535
4.226;-0.009029
4.227;-0.007385
4.228;-0.009029
4.229;-0.007385
4.23;-0.00722
4.231;-0.007549
4.232;-0.007714
4.233;-0.005741
4.234;-0.004261
4.235;-0.005412
4.236;-0.005412
4.237;-0.006234
4.238;-0.007056
4.239;-0.006398
4.24;-0.008371
4.241;-0.007056
4.242;-0.008371
4.243;-0.010179
4.244;-0.008371
4.245;-0.007714
4.246;-0.008207
4.247;-0.007878
4.248;-0.00607
4.249;-0.00607
4.25;-0.004755
4.251;-0.00607
4.252;-0.004426
4.253;-0.005741
4.254;-0.00607
4.255;-0.006892
4.256;-0.008207
4.257;-0.008207
4.258;-0.008864
4.259;-0.0087
4.26;-0.008207
4.261;-0.008535
4.262;-0.009193
4.263;-0.008371
4.264;-0.007549
4.265;-0.006727
4.266;-0.006727
4.267;-0.004919
4.268;-0.005248
4.269;-0.006234
4.27;-0.006727
4.271;-0.006563
4.272;-0.00722
4.273;-0.007878
4.274;-0.008042
4.275;-0.008042
4.276;-0.008207
4.277;-0.009029
4.278;-0.0087
4.279;-0.009029
4.28;-0.008535
4.281;-0.006892
4.282;-0.00607
4.283;-0.006398
4.284;-0.005741
4.285;-0.005083
4.286;-0.006234
4.287;-0.007549
4.288;-0.007714
4.289;-0.006727
4.29;-0.009193
4.291;-0.007878
4.292;-0.009851
4.293;-0.008864
4.294;-0.008042
4.295;-0.009522
4.296;-0.008371
4.297;-0.007385
4.298;-0.007878
4.299;-0.006398
4.3;-0.005248
4.301;-0.005083
4.302;-0.005741
4.303;-0.006398
4.304;-0.006892
4.305;-0.00607
4.306;-0.008371
4.307;-0.008535
4.308;-0.00607
4.309;-0.007385
4.31;-0.007385
4.311;-0.007549
4.312;-0.006398
4.313;-0.006398
4.314;-0.006234
4.315;-0.00607
4.316;-0.005248
4.317;-0.005083
4.318;-0.003933
4.319;-0.004261
4.32;-0.004919
4.321;-0.005741
4.322;-0.007714
4.323;-0.006398
4.324;-0.007056
4.325;-0.007714
4.326;-0.009193
4.327;-0.008535
4.328;-0.008864
4.329;-0.008535
4.33;-0.008042
4.331;-0.00722
4.332;-0.007385
4.333;-0.00607
4.334;-0.005248
4.335;-0.004097
4.336;-0.005741
4.337;-0.006563
4.338;-0.006563
4.339;-0.007385
4.34;-0.008371
4.341;-0.009851
4.342;-0.008535
4.343;-0.009522
4.344;-0.008535
4.345;-0.0087
4.346;-0.007714
4.347;-0.006234
4.348;-0.005905
4.349;-0.004426
4.35;-0.004097
4.351;-0.003111
4.352;-0.003439
4.353;-0.002782
4.354;-0.004261
4.355;-0.003768
4.356;-0.00459
4.357;-0.00459
4.358;-0.004426
4.359;-0.004426
4.36;-0.00459
4.361;-0.003275
4.362;-0.003768
4.363;-0.00196
4.364;-0.001467
4.365;-0.00196
4.366;1.27E-05
4.367;0.000999
4.368;0.001657
4.369;0.000177
4.37;-0.000152
4.371;-0.00048
4.372;0.00067
4.373;-0.000152
4.374;1.27E-05
4.375;-0.001138
4.376;0.000177
4.377;0.00067
4.378;0.000506
4.379;0.000835
4.38;0.001821
4.381;0.003136
4.382;0.003958
4.383;0.004451
4.384;0.006588
4.385;0.007081
4.386;0.006095
4.387;0.007246
4.388;0.006753
4.389;0.007081
4.39;0.005273
4.391;0.007739
4.392;0.00741
4.393;0.007575
4.394;0.00889
4.395;0.010205
4.396;0.010534
4.397;0.011684
4.398;0.013328
4.399;0.013164
4.4;0.013821
4.401;0.015465
4.402;0.015136
4.403;0.014808
4.404;0.01563
4.405;0.014643
4.406;0.01415
4.407;0.014479
4.408;0.015301
4.409;0.014315
4.41;0.015301
4.411;0.015301
4.412;0.01563
4.413;0.01563
4.414;0.015465
4.415;0.015958
4.416;0.015465
4.417;0.015794
4.418;0.016287
4.419;0.013657
4.42;0.013821
4.421;0.014808
4.422;0.012013
4.423;0.011356
4.424;0.010698
4.425;0.01004
4.426;0.008068
4.427;0.009218
4.428;0.008397
4.429;0.007739
4.43;0.007739
4.431;0.007739
4.432;0.008232
4.433;0.00889
4.434;0.008397
4.435;0.007739
4.436;0.008068
4.437;0.006424
4.438;0.004944
4.439;0.003958
4.44;0.002479
4.441;0.002314
4.442;0.001492
4.443;0.002314
4.444;0.00215
4.445;0.001328
4.446;0.000342
4.447;0.002479
4.448;0.001492
4.449;0.001657
4.45;0.001492
4.451;0.002314
4.452;0.001163
4.453;1.27E-05
4.454;-0.00048
4.455;-0.001302
4.456;-0.003439
4.457;-0.003275
4.458;-0.002782
4.459;-0.004261
4.46;-0.005083
4.461;-0.005576
4.462;-0.004755
4.463;-0.004919
4.464;-0.00459
4.465;-0.003933
4.466;-0.001302
4.467;-0.002453
4.468;-0.002124
4.469;-0.004426
4.47;-0.004097
4.471;-0.004261
4.472;-0.005905
4.473;-0.006892
4.474;-0.008042
4.475;-0.008207
4.476;-0.008207
4.477;-0.007714
4.478;-0.008535
4.479;-0.007549
4.48;-0.007549
4.481;-0.005905
4.482;-0.007385
4.483;-0.005576
4.484;-0.006398
4.485;-0.005248
4.486;-0.005248
4.487;-0.00722
4.488;-0.007385
4.489;-0.008371
4.49;-0.009029
4.491;-0.008864
4.492;-0.0087
4.493;-0.008864
4.494;-0.010179
4.495;-0.010508
4.496;-0.009851
4.497;-0.010673
4.498;-0.008371
4.499;-0.009522
4.5;-0.008042
4.501;-0.008864
4.502;-0.008864
4.503;-0.010508
4.504;-0.011001
4.505;-0.011659
4.506;-0.013796
4.507;-0.015769
4.508;-0.016097
4.509;-0.017412
4.51;-0.020207
4.511;-0.0207
4.512;-0.023659
4.513;-0.025139
4.514;-0.026783
4.515;-0.028426
4.516;-0.029413
4.517;-0.030563
4.518;-0.033194
4.519;-0.036153
4.52;-0.037468
4.521;-0.038454
4.522;-0.037961
4.523;-0.041249
4.524;-0.039605
4.525;-0.038619
4.526;-0.036646
4.527;-0.031221
4.528;-0.028098
4.529;-0.020536
4.53;-0.012152
4.531;-0.004097
4.532;0.006588
4.533;0.016123
4.534;0.028945
4.535;0.040617
4.536;0.051631
4.537;0.064617
4.538;0.075631
4.539;0.089111
4.54;0.100454
4.541;0.113112
4.542;0.125277
4.543;0.137277
4.544;0.14862
4.545;0.160785
4.546;0.169497
4.547;0.178045
4.548;0.184785
4.549;0.188237
4.55;0.189224
4.551;0.186265
4.552;0.179689
4.553;0.167853
4.554;0.155031
4.555;0.139743
4.556;0.124455
4.557;0.108345
4.558;0.093221
4.559;0.079905
4.56;0.070371
4.561;0.059028
4.562;0.049658
4.563;0.040945
4.564;0.034206
4.565;0.025986
4.566;0.020232
4.567;0.015301
4.568;0.01004
4.569;0.005602
4.57;0.001985
4.571;-0.001467
4.572;-0.005576
4.573;-0.0087
4.574;-0.012316
4.575;-0.011988
4.576;-0.014782
4.577;-0.014947
4.578;-0.014618
4.579;-0.015111
4.58;-0.014453
4.581;-0.014618
4.582;-0.01396
4.583;-0.011988
4.584;-0.010179
4.585;-0.009851
4.586;-0.009357
4.587;-0.0087
4.588;-0.006727
4.589;-0.005248
4.59;-0.004261
4.591;-0.002617
4.592;-0.001796
4.593;-0.001631
4.594;0.002479
4.595;0.002807
4.596;0.002643
4.597;0.003794
4.598;0.005931
4.599;0.005602
4.6;0.008232
4.601;0.00889
4.602;0.008068
4.603;0.007739
4.604;0.006917
4.605;0.007903
4.606;0.003794
4.607;0.003794
4.608;0.001985
4.609;0.00215
4.61;0.001657
4.611;0.001821
4.612;0.000835
4.613;0.001821
4.614;0.001657
4.615;0.002972
4.616;0.002807
4.617;0.003301
4.618;0.003958
4.619;0.003136
4.62;0.002807
4.621;0.001821
4.622;0.000835
4.623;-0.000316
4.624;1.27E-05
4.625;-0.000974
4.626;-0.001467
4.627;-0.000809
4.628;0.000342
4.629;0.000506
4.63;0.001821
4.631;0.002972
4.632;0.003136
4.633;0.003794
4.634;0.004122
4.635;0.003958
4.636;0.004122
4.637;0.004287
4.638;0.002972
4.639;0.005109
4.64;0.002479
4.641;0.002479
4.642;0.003136
4.643;0.004287
4.644;0.00478
4.645;0.005438
4.646;0.00478
4.647;0.006259
4.648;0.006917
4.649;0.008068
4.65;0.010698
4.651;0.01004
4.652;0.009383
4.653;0.008232
4.654;0.010205
4.655;0.01004
4.656;0.009712
4.657;0.009712
4.658;0.009712
4.659;0.010534
4.66;0.01004
4.661;0.01004
4.662;0.012177
4.663;0.012506
4.664;0.012999
4.665;0.015794
4.666;0.016287
4.667;0.017274
4.668;0.017931
4.669;0.019082
4.67;0.019246
4.671;0.019246
4.672;0.018589
4.673;0.017109
4.674;0.01826
4.675;0.019904
4.676;0.017602
4.677;0.019739
4.678;0.022041
4.679;0.021876
4.68;0.023849
4.681;0.024013
4.682;0.025493
4.683;0.02763
4.684;0.028452
4.685;0.029603
4.686;0.028616
4.687;0.027794
4.688;0.029931
4.689;0.029274
4.69;0.029109
4.691;0.029931
4.692;0.029931
4.693;0.031575
4.694;0.030918
4.695;0.033219
4.696;0.035521
4.697;0.035521
4.698;0.037822
4.699;0.038973
4.7;0.039466
4.701;0.040617
4.702;0.04111
4.703;0.040452
4.704;0.041603
4.705;0.042754
4.706;0.041603
4.707;0.041439
4.708;0.042425
4.709;0.043411
4.71;0.044891
4.711;0.045548
4.712;0.047028
4.713;0.048507
4.714;0.050644
4.715;0.051138
4.716;0.052617
4.717;0.053439
4.718;0.055412
4.719;0.05574
4.72;0.055412
4.721;0.055576
4.722;0.056727
4.723;0.057877
4.724;0.058206
4.725;0.058535
4.726;0.059193
4.727;0.059686
4.728;0.060672
4.729;0.061658
4.73;0.062152
4.731;0.064617
4.732;0.064946
4.733;0.067741
4.734;0.068398
4.735;0.068891
4.736;0.068727
4.737;0.070042
4.738;0.069713
4.739;0.069549
4.74;0.069713
4.741;0.070207
4.742;0.070535
4.743;0.071193
4.744;0.072179
4.745;0.073166
4.746;0.073823
4.747;0.074809
4.748;0.076946
4.749;0.077604
4.75;0.079412
4.751;0.08007
4.752;0.081221
4.753;0.080563
4.754;0.078262
4.755;0.077933
4.756;0.078755
4.757;0.078097
4.758;0.078262
4.759;0.077933
4.76;0.077768
4.761;0.077933
4.762;0.077768
4.763;0.079577
4.764;0.079084
4.765;0.078262
4.766;0.077604
4.767;0.079412
4.768;0.079412
4.769;0.077933
4.77;0.075631
4.771;0.076125
4.772;0.074152
4.773;0.072179
4.774;0.071686
4.775;0.070371
4.776;0.070042
4.777;0.068891
4.778;0.069549
4.779;0.067412
4.78;0.065932
4.781;0.065275
4.782;0.064124
4.783;0.064453
4.784;0.064289
4.785;0.063138
4.786;0.060014
4.787;0.058535
4.788;0.056891
4.789;0.05459
4.79;0.052781
4.791;0.051631
4.792;0.050316
4.793;0.049658
4.794;0.047357
4.795;0.04637
4.796;0.044398
4.797;0.044562
4.798;0.042261
4.799;0.043082
4.8;0.041767
4.801;0.040781
4.802;0.040123
4.803;0.037986
4.804;0.036507
4.805;0.034534
4.806;0.032068
4.807;0.030589
4.808;0.029438
4.809;0.02763
4.81;0.027137
4.811;0.026644
4.812;0.02615
4.813;0.025164
4.814;0.023685
4.815;0.022863
4.816;0.023685
4.817;0.022698
4.818;0.022205
4.819;0.020232
4.82;0.018917
4.821;0.018424
4.822;0.015958
4.823;0.014479
4.824;0.012506
4.825;0.011684
4.826;0.011027
4.827;0.010205
4.828;0.010534
4.829;0.009218
4.83;0.008232
4.831;0.008397
4.832;0.009054
4.833;0.008561
4.834;0.007575
4.835;0.00889
4.836;0.005931
4.837;0.005931
4.838;0.005109
4.839;0.003465
4.84;0.002643
4.841;-0.000152
4.842;0.000999
4.843;-0.000152
4.844;0.000342
4.845;-0.000809
4.846;-0.000152
4.847;-0.000809
4.848;-0.000645
4.849;-0.000316
4.85;1.27E-05
4.851;-0.001796
4.852;-0.001138
4.853;-0.001302
4.854;-0.002124
4.855;-0.002617
4.856;-0.00459
4.857;-0.005905
4.858;-0.00722
4.859;-0.006398
4.86;-0.006727
4.861;-0.007056
4.862;-0.007385
4.863;-0.007056
4.864;-0.006727
4.865;-0.00607
4.866;-0.00607
4.867;-0.00607
4.868;-0.006892
4.869;-0.006892
4.87;-0.005741
4.871;-0.007549
4.872;-0.007385
4.873;-0.009686
4.874;-0.010179
4.875;-0.010508
4.876;-0.010344
4.877;-0.010837
4.878;-0.010344
4.879;-0.009522
4.88;-0.008864
4.881;-0.009029
4.882;-0.009029
4.883;-0.007878
4.884;-0.00722
4.885;-0.00607
4.886;-0.008371
4.887;-0.007549
4.888;-0.008042
4.889;-0.009029
4.89;-0.010508
4.891;-0.010344
4.892;-0.011166
4.893;-0.01133
4.894;-0.011166
4.895;-0.010508
4.896;-0.010508
4.897;-0.010179
4.898;-0.009193
4.899;-0.009193
4.9;-0.008535
4.901;-0.007714
4.902;-0.007878
4.903;-0.008535
4.904;-0.009686
4.905;-0.009357
4.906;-0.009851
4.907;-0.011659
4.908;-0.011494
4.909;-0.012316
4.91;-0.011001
4.911;-0.01133
4.912;-0.011494
4.913;-0.010673
4.914;-0.009686
4.915;-0.009193
4.916;-0.008864
4.917;-0.007385
4.918;-0.008371
4.919;-0.007385
4.92;-0.007878
4.921;-0.008042
4.922;-0.008042
4.923;-0.010508
4.924;-0.011166
4.925;-0.010015
4.926;-0.010344
4.927;-0.011001
4.928;-0.010508
4.929;-0.008371
4.93;-0.009029
4.931;-0.008042
4.932;-0.00722
4.933;-0.006398
4.934;-0.00722
4.935;-0.006727
4.936;-0.008535
4.937;-0.007878
4.938;-0.008207
4.939;-0.008864
4.94;-0.010015
4.941;-0.010508
4.942;-0.010015
4.943;-0.010344
4.944;-0.009522
4.945;-0.009686
4.946;-0.008864
4.947;-0.009029
4.948;-0.008042
4.949;-0.00722
4.95;-0.007056
4.951;-0.00607
4.952;-0.00607
4.953;-0.00722
4.954;-0.006727
4.955;-0.006727
4.956;-0.00722
4.957;-0.009357
4.958;-0.009357
4.959;-0.009029
4.96;-0.0087
4.961;-0.008042
4.962;-0.008864
4.963;-0.008042
4.964;-0.007056
4.965;-0.006234
4.966;-0.004755
4.967;-0.004755
4.968;-0.005248
4.969;-0.005741
4.97;-0.005741
4.971;-0.006727
4.972;-0.007385
4.973;-0.008371
4.974;-0.007549
4.975;-0.007714
4.976;-0.008371
4.977;-0.008207
4.978;-0.008371
4.979;-0.007878
4.98;-0.006563
4.981;-0.006727
4.982;-0.006398
4.983;-0.007056
4.984;-0.005741
4.985;-0.005576
4.986;-0.006234
4.987;-0.005576
4.988;-0.007878
4.989;-0.007549
4.99;-0.009193
4.991;-0.008371
4.992;-0.008042
4.993;-0.008535
4.994;-0.008042
4.995;-0.008535
4.996;-0.007878
4.997;-0.007056
4.998;-0.006234
4.999;-0.005412
5;-0.005248
5.001;-0.00459
5.002;-0.003933
5.003;-0.005248
5.004;-0.006727
5.005;-0.006563
5.006;-0.007714
5.007;-0.007878
5.008;-0.008042
5.009;-0.008207
5.01;-0.008864
5.011;-0.008535
5.012;-0.008864
5.013;-0.007714
5.014;-0.006234
5.015;-0.006398
5.016;-0.005905
5.017;-0.005083
5.018;-0.005083
5.019;-0.006398
5.02;-0.00607
5.021;-0.006398
5.022;-0.006563
5.023;-0.008535
5.024;-0.007385
5.025;-0.008371
5.026;-0.008535
5.027;-0.0087
5.028;-0.008207
5.029;-0.007385
5.03;-0.006892
5.031;-0.006234
5.032;-0.005412
5.033;-0.006234
5.034;-0.005412
5.035;-0.005248
5.036;-0.007056
5.037;-0.006398
5.038;-0.006892
5.039;-0.007549
5.04;-0.008535
5.041;-0.007714
5.042;-0.009193
5.043;-0.0087
5.044;-0.008535
5.045;-0.0087
5.046;-0.006892
5.047;-0.006727
5.048;-0.006234
5.049;-0.005576
5.05;-0.00459
5.051;-0.005741
5.052;-0.005248
5.053;-0.006727
5.054;-0.00722
5.055;-0.006727
5.056;-0.008371
5.057;-0.009029
5.058;-0.008535
5.059;-0.008207
5.06;-0.007878
5.061;-0.006892
5.062;-0.007714
5.063;-0.006563
5.064;-0.006727
5.065;-0.006727
5.066;-0.005905
5.067;-0.004426
5.068;-0.005083
5.069;-0.006234
5.07;-0.006563
5.071;-0.00607
5.072;-0.007549
5.073;-0.007714
5.074;-0.008535
5.075;-0.0087
5.076;-0.008371
5.077;-0.008371
5.078;-0.007714
5.079;-0.00722
5.08;-0.007878
5.081;-0.005576
5.082;-0.006234
5.083;-0.005248
5.084;-0.005576
5.085;-0.005741
5.086;-0.006892
5.087;-0.00607
5.088;-0.006234
5.089;-0.006398
5.09;-0.008535
5.091;-0.007714
5.092;-0.008371
5.093;-0.007878
5.094;-0.00722
5.095;-0.007714
5.096;-0.007714
5.097;-0.006892
5.098;-0.007056
5.099;-0.006727
5.1;-0.005248
5.101;-0.004755
5.102;-0.004755
5.103;-0.005741
5.104;-0.005248
5.105;-0.006398
5.106;-0.007056
5.107;-0.009193
5.108;-0.009522
5.109;-0.007549
5.11;-0.008207
5.111;-0.008371
5.112;-0.007714
5.113;-0.0087
5.114;-0.007549
5.115;-0.006563
5.116;-0.004919
5.117;-0.004426
5.118;-0.004755
5.119;-0.00459
5.12;-0.006727
5.121;-0.005576
5.122;-0.007056
5.123;-0.008042
5.124;-0.008207
5.125;-0.009522
5.126;-0.009357
5.127;-0.008042
5.128;-0.007714
5.129;-0.00722
5.13;-0.007549
5.131;-0.007056
5.132;-0.005248
5.133;-0.005576
5.134;-0.006398
5.135;-0.005576
5.136;-0.006727
5.137;-0.006398
5.138;-0.007549
5.139;-0.007549
5.14;-0.008535
5.141;-0.008042
5.142;-0.008535
5.143;-0.008535
5.144;-0.007878
5.145;-0.0087
5.146;-0.008207
5.147;-0.006234
5.148;-0.00722
5.149;-0.005412
5.15;-0.004919
5.151;-0.005248
5.152;-0.005083
5.153;-0.005905
5.154;-0.006398
5.155;-0.007714
5.156;-0.007714
5.157;-0.007385
5.158;-0.007878
5.159;-0.009357
5.16;-0.008207
5.161;-0.008042
5.162;-0.007549
5.163;-0.007385
5.164;-0.005576
5.165;-0.004097
5.166;-0.003439
5.167;-0.004097
5.168;-0.004919
5.169;-0.004755
5.17;-0.005412
5.171;-0.006234
5.172;-0.006234
5.173;-0.005741
5.174;-0.007878
5.175;-0.008042
5.176;-0.008042
5.177;-0.007878
5.178;-0.006727
5.179;-0.00722
5.18;-0.006727
5.181;-0.00607
5.182;-0.005412
5.183;-0.00607
5.184;-0.005576
5.185;-0.005576
5.186;-0.005576
5.187;-0.005741
5.188;-0.006563
5.189;-0.006563
5.19;-0.008042
5.191;-0.007714
5.192;-0.009686
5.193;-0.0087
5.194;-0.010179
5.195;-0.007549
5.196;-0.007878
5.197;-0.008207
5.198;-0.00607
5.199;-0.008042
5.2;-0.005741
5.201;-0.00459
5.202;-0.004919
5.203;-0.005741
5.204;-0.006892
5.205;-0.005412
5.206;-0.00722
5.207;-0.005905
5.208;-0.007056
5.209;-0.006892
5.21;-0.005576
5.211;-0.005248
5.212;-0.00459
5.213;-0.003604
5.214;-0.003439
5.215;-0.002289
5.216;-0.001467
5.217;-0.001138
5.218;-0.001467
5.219;-0.001138
5.22;-0.001467
5.221;-0.000809
5.222;-0.002946
5.223;-0.002946
5.224;-0.001796
5.225;-0.002617
5.226;-0.002289
5.227;-0.001302
5.228;-0.00048
5.229;0.000177
5.23;0.000342
5.231;0.00215
5.232;0.002314
5.233;0.00215
5.234;0.003136
5.235;0.003794
5.236;0.004287
5.237;0.003301
5.238;0.003136
5.239;0.003301
5.24;0.003301
5.241;0.004287
5.242;0.004616
5.243;0.004616
5.244;0.004616
5.245;0.006424
5.246;0.006917
5.247;0.008397
5.248;0.008068
5.249;0.01004
5.25;0.011356
5.251;0.011684
5.252;0.012999
5.253;0.012506
5.254;0.013328
5.255;0.012671
5.256;0.012013
5.257;0.011684
5.258;0.012999
5.259;0.013164
5.26;0.013164
5.261;0.015136
5.262;0.015794
5.263;0.015794
5.264;0.017438
5.265;0.017767
5.266;0.017767
5.267;0.018753
5.268;0.017767
5.269;0.017602
5.27;0.017109
5.271;0.015794
5.272;0.014315
5.273;0.014479
5.274;0.011684
5.275;0.011027
5.276;0.012506
5.277;0.01152
5.278;0.010698
5.279;0.010862
5.28;0.01152
5.281;0.01152
5.282;0.012013
5.283;0.010698
5.284;0.011191
5.285;0.009712
5.286;0.008561
5.287;0.007903
5.288;0.007739
5.289;0.007903
5.29;0.005766
5.291;0.005109
5.292;0.00478
5.293;0.003794
5.294;0.003629
5.295;0.003794
5.296;0.003465
5.297;0.003465
5.298;0.003794
5.299;0.003465
5.3;0.004122
5.301;0.004287
5.302;0.003958
5.303;0.002314
5.304;0.001328
5.305;0.001492
5.306;-0.000809
5.307;-0.000974
5.308;-0.002453
5.309;-0.002124
5.31;-0.003604
5.311;-0.002782
5.312;-0.004097
5.313;-0.002289
5.314;-0.001796
5.315;-0.002124
5.316;-0.003111
5.317;-0.001631
5.318;-0.001631
5.319;-0.001796
5.32;-0.003275
5.321;-0.003275
5.322;-0.004919
5.323;-0.004755
5.324;-0.006398
5.325;-0.005741
5.326;-0.006234
5.327;-0.007056
5.328;-0.006563
5.329;-0.007714
5.33;-0.006563
5.331;-0.005905
5.332;-0.00607
5.333;-0.005248
5.334;-0.004097
5.335;-0.005248
5.336;-0.005576
5.337;-0.006234
5.338;-0.00722
5.339;-0.007549
5.34;-0.007878
5.341;-0.009522
5.342;-0.009851
5.343;-0.007385
5.344;-0.009029
5.345;-0.0087
5.346;-0.008535
5.347;-0.009193
5.348;-0.007385
5.349;-0.006398
5.35;-0.006563
5.351;-0.006398
5.352;-0.006727
5.353;-0.008535
5.354;-0.008535
5.355;-0.009686
5.356;-0.010673
5.357;-0.012974
5.358;-0.01396
5.359;-0.013303
5.36;-0.012645
5.361;-0.014125
5.362;-0.013796
5.363;-0.014618
5.364;-0.01396
5.365;-0.014453
5.366;-0.016097
5.367;-0.018399
5.368;-0.0207
5.369;-0.023495
5.37;-0.026125
5.371;-0.028755
5.372;-0.031385
5.373;-0.03418
5.374;-0.03681
5.375;-0.038125
5.376;-0.039934
5.377;-0.040262
5.378;-0.040427
5.379;-0.039112
5.38;-0.040262
5.381;-0.037961
5.382;-0.034344
5.383;-0.028591
5.384;-0.023166
5.385;-0.017248
5.386;-0.011001
5.387;-0.002946
5.388;0.005931
5.389;0.015794
5.39;0.026479
5.391;0.036671
5.392;0.048672
5.393;0.061823
5.394;0.074645
5.395;0.087632
5.396;0.101934
5.397;0.114427
5.398;0.128729
5.399;0.142044
5.4;0.153551
5.401;0.16325
5.402;0.170648
5.403;0.17936
5.404;0.183963
5.405;0.187909
5.406;0.185936
5.407;0.182977
5.408;0.174922
5.409;0.16473
5.41;0.152236
5.411;0.138592
5.412;0.122482
5.413;0.109331
5.414;0.095029
5.415;0.082536
5.416;0.071357
5.417;0.060672
5.418;0.052617
5.419;0.04374
5.42;0.035521
5.421;0.026479
5.422;0.019082
5.423;0.013328
5.424;0.008068
5.425;0.002479
5.426;-0.001467
5.427;-0.002617
5.428;-0.007385
5.429;-0.008371
5.43;-0.009851
5.431;-0.010179
5.432;-0.010837
5.433;-0.010837
5.434;-0.011659
5.435;-0.012645
5.436;-0.013303
5.437;-0.014125
5.438;-0.014947
5.439;-0.013796
5.44;-0.014125
5.441;-0.01396
5.442;-0.011823
5.443;-0.009193
5.444;-0.007878
5.445;-0.005083
5.446;-0.003768
5.447;-0.00196
5.448;0.000342
5.449;0.001821
5.45;0.004122
5.451;0.005273
5.452;0.005766
5.453;0.00478
5.454;0.006753
5.455;0.004944
5.456;0.005931
5.457;0.004451
5.458;0.004944
5.459;0.004122
5.46;0.005109
5.461;0.005766
5.462;0.003465
5.463;0.004451
5.464;0.002807
5.465;0.003958
5.466;0.003794
5.467;0.004122
5.468;0.004616
5.469;0.003958
5.47;0.00215
5.471;0.001328
5.472;0.00215
5.473;0.001657
5.474;0.00067
5.475;-0.000809
5.476;-0.001138
5.477;-0.000645
5.478;-0.000152
5.479;-0.000152
5.48;0.000999
5.481;0.001492
5.482;0.002643
5.483;0.002972
5.484;0.003958
5.485;0.002972
5.486;0.003629
5.487;0.003958
5.488;0.002314
5.489;0.001163
5.49;0.001492
5.491;0.001657
5.492;0.00215
5.493;0.001328
5.494;0.003136
5.495;0.002479
5.496;0.00215
5.497;0.003136
5.498;0.005602
5.499;0.005931
5.5;0.00741
5.501;0.007739
5.502;0.00741
5.503;0.007903
5.504;0.005273
5.505;0.006424
5.506;0.007246
5.507;0.006424
5.508;0.006259
5.509;0.005766
5.51;0.006753
5.511;0.008068
5.512;0.009054
5.513;0.009712
5.514;0.011027
5.515;0.012506
5.516;0.011849
5.517;0.013657
5.518;0.014479
5.519;0.013328
5.52;0.014643
5.521;0.014972
5.522;0.013821
5.523;0.015136
5.524;0.015301
5.525;0.016287
5.526;0.01563
5.527;0.016123
5.528;0.016287
5.529;0.019082
5.53;0.020232
5.531;0.02089
5.532;0.021383
5.533;0.023191
5.534;0.022863
5.535;0.024178
5.536;0.024013
5.537;0.025
5.538;0.024178
5.539;0.025164
5.54;0.025657
5.541;0.025164
5.542;0.026479
5.543;0.025657
5.544;0.027301
5.545;0.028452
5.546;0.029109
5.547;0.030425
5.548;0.03174
5.549;0.03174
5.55;0.034534
5.551;0.036178
5.552;0.036507
5.553;0.036178
5.554;0.036836
5.555;0.036178
5.556;0.037164
5.557;0.037658
5.558;0.037164
5.559;0.038973
5.56;0.038973
5.561;0.041274
5.562;0.040945
5.563;0.04374
5.564;0.044562
5.565;0.044726
5.566;0.046041
5.567;0.048672
5.568;0.048672
5.569;0.049658
5.57;0.048836
5.571;0.051138
5.572;0.050644
5.573;0.050973
5.574;0.05048
5.575;0.051302
5.576;0.052781
5.577;0.053275
5.578;0.054918
5.579;0.056891
5.58;0.058206
5.581;0.060508
5.582;0.062645
5.583;0.061987
5.584;0.063138
5.585;0.063138
5.586;0.064289
5.587;0.064946
5.588;0.064453
5.589;0.064617
5.59;0.065439
5.591;0.064946
5.592;0.065768
5.593;0.067741
5.594;0.067741
5.595;0.070042
5.596;0.069878
5.597;0.071686
5.598;0.071193
5.599;0.073001
5.6;0.074316
5.601;0.074645
5.602;0.075631
5.603;0.076125
5.604;0.077275
5.605;0.076946
5.606;0.076125
5.607;0.07596
5.608;0.076946
5.609;0.076782
5.61;0.076289
5.611;0.076453
5.612;0.07744
5.613;0.077604
5.614;0.079248
5.615;0.080892
5.616;0.079905
5.617;0.079905
5.618;0.080727
5.619;0.079577
5.62;0.079905
5.621;0.076453
5.622;0.076125
5.623;0.076125
5.624;0.075138
5.625;0.074152
5.626;0.074809
5.627;0.073494
5.628;0.072672
5.629;0.073001
5.63;0.072508
5.631;0.072015
5.632;0.071522
5.633;0.071357
5.634;0.0707
5.635;0.06922
5.636;0.067412
5.637;0.065768
5.638;0.062973
5.639;0.062152
5.64;0.060508
5.641;0.058042
5.642;0.059028
5.643;0.055412
5.644;0.05459
5.645;0.054261
5.646;0.05311
5.647;0.052124
5.648;0.051795
5.649;0.052288
5.65;0.049822
5.651;0.048672
5.652;0.047028
5.653;0.044233
5.654;0.042589
5.655;0.041274
5.656;0.040452
5.657;0.038644
5.658;0.035192
5.659;0.035192
5.66;0.033712
5.661;0.033384
5.662;0.030589
5.663;0.030918
5.664;0.031247
5.665;0.029931
5.666;0.029274
5.667;0.028616
5.668;0.028123
5.669;0.025986
5.67;0.023849
5.671;0.022205
5.672;0.021548
5.673;0.018589
5.674;0.017109
5.675;0.016616
5.676;0.016452
5.677;0.014315
5.678;0.015136
5.679;0.015465
5.68;0.014479
5.681;0.013821
5.682;0.013164
5.683;0.012835
5.684;0.011684
5.685;0.010862
5.686;0.010534
5.687;0.009547
5.688;0.007246
5.689;0.006917
5.69;0.00478
5.691;0.003794
5.692;0.001821
5.693;0.003629
5.694;0.003136
5.695;0.002314
5.696;0.001821
5.697;0.00215
5.698;0.002643
5.699;0.001163
5.7;0.002479
5.701;0.002479
5.702;0.001492
5.703;-0.000316
5.704;-0.001467
5.705;-0.001796
5.706;-0.001796
5.707;-0.004919
5.708;-0.006234
5.709;-0.004261
5.71;-0.004261
5.711;-0.005741
5.712;-0.004919
5.713;-0.005248
5.714;-0.005412
5.715;-0.00459
5.716;-0.005083
5.717;-0.005083
5.718;-0.005412
5.719;-0.005741
5.72;-0.005741
5.721;-0.006727
5.722;-0.008371
5.723;-0.007714
5.724;-0.010344
5.725;-0.011494
5.726;-0.010508
5.727;-0.010015
5.728;-0.008207
5.729;-0.009522
5.73;-0.008207
5.731;-0.009029
5.732;-0.007878
5.733;-0.008207
5.734;-0.007549
5.735;-0.008042
5.736;-0.007878
5.737;-0.009851
5.738;-0.009357
5.739;-0.010179
5.74;-0.009522
5.741;-0.011494
5.742;-0.011166
5.743;-0.010344
5.744;-0.012481
5.745;-0.010508
5.746;-0.010179
5.747;-0.009029
5.748;-0.009522
5.749;-0.008371
5.75;-0.008535
5.751;-0.009357
5.752;-0.010344
5.753;-0.009522
5.754;-0.010015
5.755;-0.010344
5.756;-0.01281
5.757;-0.012645
5.758;-0.011988
5.759;-0.01133
5.76;-0.011659
5.761;-0.011166
5.762;-0.010673
5.763;-0.010344
5.764;-0.009686
5.765;-0.010179
5.766;-0.008864
5.767;-0.008864
5.768;-0.008864
5.769;-0.008535
5.77;-0.008371
5.771;-0.009357
5.772;-0.009851
5.773;-0.010837
5.774;-0.011988
5.775;-0.012481
5.776;-0.011166
5.777;-0.010344
5.778;-0.010344
5.779;-0.0087
5.78;-0.008864
5.781;-0.007549
5.782;-0.007385
5.783;-0.00722
5.784;-0.008042
5.785;-0.007549
5.786;-0.008371
5.787;-0.0087
5.788;-0.009029
5.789;-0.010179
5.79;-0.011166
5.791;-0.011659
5.792;-0.010344
5.793;-0.009851
5.794;-0.009029
5.795;-0.009686
5.796;-0.009193
5.797;-0.008864
5.798;-0.008371
5.799;-0.008207
5.8;-0.007878
5.801;-0.008042
5.802;-0.007878
5.803;-0.00722
5.804;-0.007549
5.805;-0.009851
5.806;-0.009522
5.807;-0.009193
5.808;-0.009522
5.809;-0.009686
5.81;-0.009522
5.811;-0.0087
5.812;-0.009522
5.813;-0.007714
5.814;-0.007714
5.815;-0.007056
5.816;-0.006563
5.817;-0.005412
5.818;-0.005248
5.819;-0.00607
5.82;-0.007878
5.821;-0.006563
5.822;-0.007878
5.823;-0.007878
5.824;-0.0087
5.825;-0.010015
5.826;-0.008535
5.827;-0.009029
5.828;-0.008371
5.829;-0.0087
5.83;-0.005741
5.831;-0.006563
5.832;-0.006398
5.833;-0.006727
5.834;-0.006398
5.835;-0.006892
5.836;-0.005741
5.837;-0.006234
5.838;-0.008535
5.839;-0.010837
5.84;-0.0087
5.841;-0.009686
5.842;-0.009686
5.843;-0.007714
5.844;-0.008042
5.845;-0.006563
5.846;-0.008207
5.847;-0.007056
5.848;-0.006727
5.849;-0.005905
5.85;-0.005741
5.851;-0.005412
5.852;-0.005905
5.853;-0.007385
5.854;-0.007549
5.855;-0.00722
5.856;-0.007385
5.857;-0.0087
5.858;-0.010179
5.859;-0.009357
5.86;-0.008207
5.861;-0.008371
5.862;-0.007549
5.863;-0.00722
5.864;-0.006727
5.865;-0.005576
5.866;-0.00607
5.867;-0.005248
5.868;-0.00607
5.869;-0.00722
5.87;-0.006727
5.871;-0.005741
5.872;-0.008864
5.873;-0.008535
5.874;-0.008042
5.875;-0.007878
5.876;-0.009193
5.877;-0.007714
5.878;-0.006727
5.879;-0.008042
5.88;-0.007878
5.881;-0.006563
5.882;-0.006727
5.883;-0.005905
5.884;-0.006727
5.885;-0.005412
5.886;-0.007056
5.887;-0.006398
5.888;-0.007714
5.889;-0.007056
5.89;-0.00722
5.891;-0.009029
5.892;-0.009357
5.893;-0.010015
5.894;-0.008042
5.895;-0.009522
5.896;-0.008042
5.897;-0.006892
5.898;-0.006563
5.899;-0.007056
5.9;-0.005905
5.901;-0.004919
5.902;-0.007056
5.903;-0.006563
5.904;-0.008042
5.905;-0.007056
5.906;-0.007714
5.907;-0.0087
5.908;-0.009522
5.909;-0.008535
5.91;-0.009193
5.911;-0.008371
5.912;-0.007878
5.913;-0.007385
5.914;-0.007385
5.915;-0.006563
5.916;-0.005576
5.917;-0.006234
5.918;-0.006892
5.919;-0.007056
5.92;-0.005905
5.921;-0.007056
5.922;-0.00722
5.923;-0.006727
5.924;-0.008207
5.925;-0.010179
5.926;-0.008535
5.927;-0.007385
5.928;-0.008042
5.929;-0.008042
5.93;-0.006563
5.931;-0.006727
5.932;-0.006234
5.933;-0.006563
5.934;-0.005576
5.935;-0.005741
5.936;-0.006563
5.937;-0.008371
5.938;-0.007385
5.939;-0.007714
5.94;-0.008042
5.941;-0.010179
5.942;-0.008371
5.943;-0.008207
5.944;-0.010344
5.945;-0.008864
5.946;-0.008207
5.947;-0.006727
5.948;-0.008042
5.949;-0.006398
5.95;-0.004919
5.951;-0.005905
5.952;-0.005905
5.953;-0.00607
5.954;-0.005905
5.955;-0.007056
5.956;-0.007549
5.957;-0.008207
5.958;-0.009851
5.959;-0.010015
5.96;-0.0087
5.961;-0.007385
5.962;-0.007878
5.963;-0.009193
5.964;-0.007549
5.965;-0.006234
5.966;-0.00607
5.967;-0.006563
5.968;-0.005741
5.969;-0.006727
5.97;-0.007056
5.971;-0.008042
5.972;-0.007549
5.973;-0.008864
5.974;-0.008864
5.975;-0.008864
5.976;-0.008371
5.977;-0.008371
5.978;-0.009029
5.979;-0.008207
5.98;-0.007549
5.981;-0.006398
5.982;-0.007878
5.983;-0.005412
5.984;-0.005248
5.985;-0.00722
5.986;-0.006234
5.987;-0.006892
5.988;-0.007878
5.989;-0.008535
5.99;-0.008371
5.991;-0.010508
5.992;-0.009357
5.993;-0.010015
5.994;-0.008864
5.995;-0.008535
5.996;-0.007385
5.997;-0.008371
5.998;-0.007878
5.999;-0.004919
6;-0.005248
6.001;-0.005741
6.002;-0.007056
6.003;-0.00607
6.004;-0.008042
6.005;-0.007385
6.006;-0.008207
6.007;-0.0087
6.008;-0.0087
6.009;-0.008535
6.01;-0.009522
6.011;-0.008864
6.012;-0.009686
6.013;-0.007714
6.014;-0.007056
6.015;-0.006563
6.016;-0.00607
6.017;-0.005248
6.018;-0.005576
6.019;-0.004919
6.02;-0.005905
6.021;-0.005741
6.022;-0.006727
6.023;-0.007714
6.024;-0.007878
6.025;-0.008042
6.026;-0.008535
6.027;-0.009193
6.028;-0.009686
6.029;-0.007714
6.03;-0.007878
6.031;-0.006563
6.032;-0.00607
6.033;-0.005083
6.034;-0.005741
6.035;-0.005412
6.036;-0.006563
6.037;-0.005905
6.038;-0.007549
6.039;-0.007714
6.04;-0.007878
6.041;-0.011166
6.042;-0.010673
6.043;-0.009193
6.044;-0.007385
6.045;-0.008371
6.046;-0.007878
6.047;-0.006234
6.048;-0.007878
6.049;-0.008042
6.05;-0.006563
6.051;-0.005905
6.052;-0.006727
6.053;-0.006563
6.054;-0.006234
6.055;-0.007714
6.056;-0.008042
6.057;-0.009851
6.058;-0.008864
6.059;-0.0087
6.06;-0.008371
6.061;-0.0087
6.062;-0.007385
6.063;-0.005248
6.064;-0.004919
6.065;-0.003604
6.066;-0.004426
6.067;-0.004755
6.068;-0.003275
6.069;-0.001631
6.07;-0.002124
6.071;-0.003439
6.072;-0.00459
6.073;-0.003768
6.074;-0.004426
6.075;-0.004755
6.076;-0.005412
6.077;-0.003933
6.078;-0.002782
6.079;-0.00196
6.08;-0.000974
6.081;-0.000809
6.082;1.27E-05
6.083;-0.000809
6.084;0.000835
6.085;0.000835
6.086;0.000835
6.087;0.00067
6.088;0.000506
6.089;0.000999
6.09;-0.001138
6.091;-0.001467
6.092;-0.000152
6.093;0.001657
6.094;0.000342
6.095;0.00215
6.096;0.002479
6.097;0.004616
6.098;0.005602
6.099;0.005931
6.1;0.006424
6.101;0.006917
6.102;0.006917
6.103;0.00889
6.104;0.008397
6.105;0.008561
6.106;0.007081
6.107;0.009383
6.108;0.008725
6.109;0.008725
6.11;0.008397
6.111;0.010862
6.112;0.011849
6.113;0.012177
6.114;0.013657
6.115;0.014643
6.116;0.016452
6.117;0.017274
6.118;0.016452
6.119;0.01563
6.12;0.015958
6.121;0.014808
6.122;0.016287
6.123;0.015958
6.124;0.01415
6.125;0.013493
6.126;0.013328
6.127;0.013657
6.128;0.013657
6.129;0.012835
6.13;0.013657
6.131;0.012999
6.132;0.012177
6.133;0.013493
6.134;0.012999
6.135;0.011849
6.136;0.010862
6.137;0.010862
6.138;0.011191
6.139;0.009054
6.14;0.005931
6.141;0.005766
6.142;0.005602
6.143;0.004287
6.144;0.005602
6.145;0.006095
6.146;0.005931
6.147;0.005766
6.148;0.006917
6.149;0.005602
6.15;0.004616
6.151;0.004616
6.152;0.004944
6.153;0.004616
6.154;0.002807
6.155;0.00215
6.156;0.001492
6.157;0.001328
6.158;-0.001138
6.159;-0.001302
6.16;-0.000316
6.161;-0.000974
6.162;-0.001302
6.163;0.000342
6.164;-0.00048
6.165;-0.000152
6.166;-0.001138
6.167;-0.000645
6.168;-0.000809
6.169;-0.002289
6.17;-0.003111
6.171;-0.003275
6.172;-0.005083
6.173;-0.005412
6.174;-0.005412
6.175;-0.007549
6.176;-0.006563
6.177;-0.005576
6.178;-0.005248
6.179;-0.003439
6.18;-0.004919
6.181;-0.004919
6.182;-0.004426
6.183;-0.004261
6.184;-0.004919
6.185;-0.006563
6.186;-0.005741
6.187;-0.006234
6.188;-0.006563
6.189;-0.009193
6.19;-0.007549
6.191;-0.009193
6.192;-0.009851
6.193;-0.008535
6.194;-0.009193
6.195;-0.008207
6.196;-0.0087
6.197;-0.008042
6.198;-0.007056
6.199;-0.006727
6.2;-0.006727
6.201;-0.007056
6.202;-0.00722
6.203;-0.007549
6.204;-0.008864
6.205;-0.008042
6.206;-0.009686
6.207;-0.010837
6.208;-0.011823
6.209;-0.011166
6.21;-0.010673
6.211;-0.011494
6.212;-0.011823
6.213;-0.011659
6.214;-0.011823
6.215;-0.011659
6.216;-0.01133
6.217;-0.012481
6.218;-0.014453
6.219;-0.015111
6.22;-0.014782
6.221;-0.01659
6.222;-0.021687
6.223;-0.021193
6.224;-0.024646
6.225;-0.026783
6.226;-0.02892
6.227;-0.029742
6.228;-0.032207
6.229;-0.035331
6.23;-0.037139
6.231;-0.036975
6.232;-0.037468
6.233;-0.039276
6.234;-0.039605
6.235;-0.038454
6.236;-0.038947
6.237;-0.037797
6.238;-0.03566
6.239;-0.032536
6.24;-0.026618
6.241;-0.022015
6.242;-0.015275
6.243;-0.006234
6.244;0.003301
6.245;0.013986
6.246;0.026972
6.247;0.039795
6.248;0.05048
6.249;0.063631
6.25;0.078097
6.251;0.091248
6.252;0.102755
6.253;0.115085
6.254;0.127085
6.255;0.139578
6.256;0.149771
6.257;0.159634
6.258;0.168182
6.259;0.176566
6.26;0.181826
6.261;0.185607
6.262;0.186758
6.263;0.182484
6.264;0.175744
6.265;0.166538
6.266;0.153223
6.267;0.13925
6.268;0.122482
6.269;0.107851
6.27;0.093878
6.271;0.080563
6.272;0.068891
6.273;0.058699
6.274;0.04785
6.275;0.039795
6.276;0.030753
6.277;0.024178
6.278;0.017931
6.279;0.012013
6.28;0.008725
6.281;0.002807
6.282;0.000177
6.283;-0.002453
6.284;-0.005248
6.285;-0.0087
6.286;-0.010508
6.287;-0.011823
6.288;-0.012645
6.289;-0.01396
6.29;-0.016097
6.291;-0.016919
6.292;-0.016426
6.293;-0.01659
6.294;-0.016426
6.295;-0.015111
6.296;-0.013303
6.297;-0.013631
6.298;-0.011988
6.299;-0.007878
6.3;-0.007056
6.301;-0.004755
6.302;-0.003768
6.303;-0.001138
6.304;-0.00048
6.305;-0.000316
6.306;0.001492
6.307;0.001985
6.308;0.000999
6.309;0.001985
6.31;0.002314
6.311;0.003794
6.312;0.004616
6.313;0.005109
6.314;0.006424
6.315;0.006588
6.316;0.007081
6.317;0.005766
6.318;0.004287
6.319;0.004616
6.32;0.004944
6.321;0.003301
6.322;0.002479
6.323;0.000506
6.324;0.000177
6.325;-0.00048
6.326;0.000342
6.327;-0.00048
6.328;-0.001796
6.329;1.27E-05
6.33;0.001163
6.331;0.000999
6.332;0.001657
6.333;0.001328
6.334;0.00067
6.335;0.00215
6.336;0.000835
6.337;0.000342
6.338;0.000177
6.339;-0.001631
6.34;-0.000809
6.341;-0.000152
6.342;-0.001138
6.343;-0.00048
6.344;0.001492
6.345;0.001492
6.346;0.001492
6.347;0.001657
6.348;0.002314
6.349;0.003136
6.35;0.003958
6.351;0.005602
6.352;0.003958
6.353;0.004451
6.354;0.003794
6.355;0.004944
6.356;0.004451
6.357;0.003794
6.358;0.002807
6.359;0.004122
6.36;0.004616
6.361;0.005602
6.362;0.005273
6.363;0.006424
6.364;0.006917
6.365;0.009054
6.366;0.008068
6.367;0.011027
6.368;0.011027
6.369;0.010205
6.37;0.010698
6.371;0.011027
6.372;0.009712
6.373;0.01004
6.374;0.010369
6.375;0.010698
6.376;0.011684
6.377;0.011191
6.378;0.012013
6.379;0.013821
6.38;0.014315
6.381;0.015465
6.382;0.018095
6.383;0.016945
6.384;0.018424
6.385;0.01826
6.386;0.019904
6.387;0.019739
6.388;0.019904
6.389;0.020068
6.39;0.020561
6.391;0.020397
6.392;0.020561
6.393;0.021054
6.394;0.022863
6.395;0.024178
6.396;0.025
6.397;0.026972
6.398;0.025986
6.399;0.027466
6.4;0.029603
6.401;0.03026
6.402;0.030425
6.403;0.030589
6.404;0.03174
6.405;0.031904
6.406;0.031247
6.407;0.031247
6.408;0.031904
6.409;0.033055
6.41;0.034041
6.411;0.033548
6.412;0.036178
6.413;0.037658
6.414;0.039302
6.415;0.040452
6.416;0.042261
6.417;0.041932
6.418;0.042261
6.419;0.043904
6.42;0.044233
6.421;0.043247
6.422;0.044069
6.423;0.045713
6.424;0.045548
6.425;0.045713
6.426;0.047192
6.427;0.048836
6.428;0.049822
6.429;0.050973
6.43;0.052617
6.431;0.053603
6.432;0.054096
6.433;0.05574
6.434;0.057055
6.435;0.058535
6.436;0.058864
6.437;0.059193
6.438;0.059521
6.439;0.059521
6.44;0.058699
6.441;0.059686
6.442;0.060179
6.443;0.062152
6.444;0.06396
6.445;0.063467
6.446;0.064453
6.447;0.065768
6.448;0.066754
6.449;0.068891
6.45;0.06922
6.451;0.070371
6.452;0.070535
6.453;0.070864
6.454;0.071686
6.455;0.071193
6.456;0.071522
6.457;0.071357
6.458;0.072344
6.459;0.073001
6.46;0.072508
6.461;0.075796
6.462;0.07596
6.463;0.076946
6.464;0.078262
6.465;0.078262
6.466;0.077768
6.467;0.078097
6.468;0.078097
6.469;0.077604
6.47;0.079741
6.471;0.078262
6.472;0.077604
6.473;0.077275
6.474;0.075796
6.475;0.075138
6.476;0.075796
6.477;0.075303
6.478;0.074316
6.479;0.074974
6.48;0.077275
6.481;0.07596
6.482;0.074809
6.483;0.075467
6.484;0.074974
6.485;0.072179
6.486;0.072344
6.487;0.070864
6.488;0.069713
6.489;0.068563
6.49;0.065768
6.491;0.065111
6.492;0.06248
6.493;0.06248
6.494;0.061658
6.495;0.061823
6.496;0.059357
6.497;0.060179
6.498;0.058864
6.499;0.057384
6.5;0.055412
6.501;0.054754
6.502;0.053275
6.503;0.050151
6.504;0.051959
6.505;0.04785
6.506;0.046699
6.507;0.04522
6.508;0.042754
6.509;0.040617
6.51;0.04111
6.511;0.038808
6.512;0.037
6.513;0.037822
6.514;0.038315
6.515;0.036836
6.516;0.035356
6.517;0.034699
6.518;0.032562
6.519;0.030425
6.52;0.028452
6.521;0.028616
6.522;0.027301
6.523;0.025657
6.524;0.02352
6.525;0.022534
6.526;0.020397
6.527;0.019082
6.528;0.019411
6.529;0.019904
6.53;0.018589
6.531;0.017602
6.532;0.017767
6.533;0.017274
6.534;0.016452
6.535;0.01563
6.536;0.014315
6.537;0.013657
6.538;0.011027
6.539;0.01004
6.54;0.008232
6.541;0.005931
6.542;0.005766
6.543;0.005766
6.544;0.005766
6.545;0.00478
6.546;0.005273
6.547;0.004944
6.548;0.003629
6.549;0.005273
6.55;0.003301
6.551;0.003958
6.552;0.001821
6.553;0.002643
6.554;0.000506
6.555;0.00215
6.556;-0.001796
6.557;-0.003275
6.558;-0.003604
6.559;-0.003933
6.56;-0.004426
6.561;-0.004097
6.562;-0.004261
6.563;-0.003933
6.564;-0.003933
6.565;-0.003604
6.566;-0.003111
6.567;-0.003111
6.568;-0.00459
6.569;-0.005412
6.57;-0.005576
6.571;-0.005083
6.572;-0.007549
6.573;-0.008042
6.574;-0.009029
6.575;-0.009851
6.576;-0.010015
6.577;-0.010015
6.578;-0.008864
6.579;-0.009851
6.58;-0.010344
6.581;-0.007878
6.582;-0.008042
6.583;-0.007385
6.584;-0.0087
6.585;-0.007056
6.586;-0.0087
6.587;-0.009357
6.588;-0.010179
6.589;-0.010673
6.59;-0.011659
6.591;-0.012316
6.592;-0.012645
6.593;-0.011823
6.594;-0.011988
6.595;-0.011659
6.596;-0.010837
6.597;-0.010508
6.598;-0.009851
6.599;-0.010508
6.6;-0.009193
6.601;-0.0087
6.602;-0.011001
6.603;-0.010508
6.604;-0.010837
6.605;-0.012152
6.606;-0.013138
6.607;-0.013796
6.608;-0.013796
6.609;-0.012645
6.61;-0.014125
6.611;-0.012481
6.612;-0.01133
6.613;-0.011988
6.614;-0.011494
6.615;-0.009686
6.616;-0.009851
6.617;-0.010015
6.618;-0.011001
6.619;-0.010015
6.62;-0.011001
6.621;-0.011494
6.622;-0.011659
6.623;-0.012645
6.624;-0.011823
6.625;-0.014125
6.626;-0.01281
6.627;-0.011659
6.628;-0.012316
6.629;-0.011659
6.63;-0.010015
6.631;-0.011166
6.632;-0.010179
6.633;-0.009686
6.634;-0.008535
6.635;-0.008864
6.636;-0.009522
6.637;-0.010015
6.638;-0.009851
6.639;-0.011001
6.64;-0.011494
6.641;-0.012316
6.642;-0.012481
6.643;-0.010837
6.644;-0.012316
6.645;-0.011166
6.646;-0.010837
6.647;-0.009357
6.648;-0.010837
6.649;-0.008535
6.65;-0.008371
6.651;-0.008535
6.652;-0.009193
6.653;-0.009522
6.654;-0.010673
6.655;-0.011494
6.656;-0.010837
6.657;-0.011494
6.658;-0.011823
6.659;-0.011823
6.66;-0.010673
6.661;-0.011001
6.662;-0.011494
6.663;-0.010673
6.664;-0.007714
6.665;-0.008371
6.666;-0.007549
6.667;-0.007878
6.668;-0.006892
6.669;-0.008535
6.67;-0.008535
6.671;-0.0087
6.672;-0.008864
6.673;-0.010015
6.674;-0.010015
6.675;-0.011494
6.676;-0.010344
6.677;-0.009851
6.678;-0.010344
6.679;-0.008042
6.68;-0.009193
6.681;-0.007878
6.682;-0.009029
6.683;-0.006892
6.684;-0.006563
6.685;-0.007714
6.686;-0.0087
6.687;-0.007549
6.688;-0.009193
6.689;-0.009851
6.69;-0.010015
6.691;-0.009522
6.692;-0.010673
6.693;-0.010344
6.694;-0.010344
6.695;-0.009686
6.696;-0.009686
6.697;-0.009029
6.698;-0.008864
6.699;-0.008042
6.7;-0.007385
6.701;-0.007385
6.702;-0.007878
6.703;-0.007549
6.704;-0.007549
6.705;-0.009686
6.706;-0.009522
6.707;-0.009193
6.708;-0.010015
6.709;-0.010179
6.71;-0.009686
6.711;-0.009851
6.712;-0.009851
6.713;-0.008864
6.714;-0.0087
6.715;-0.007385
6.716;-0.006398
6.717;-0.008042
6.718;-0.006727
6.719;-0.008864
6.72;-0.007878
6.721;-0.007714
6.722;-0.009522
6.723;-0.009357
6.724;-0.009193
6.725;-0.012316
6.726;-0.010508
6.727;-0.010673
6.728;-0.009193
6.729;-0.008535
6.73;-0.008042
6.731;-0.008042
6.732;-0.006892
6.733;-0.00722
6.734;-0.007056
6.735;-0.00722
6.736;-0.008371
6.737;-0.00722
6.738;-0.008864
6.739;-0.008371
6.74;-0.009522
6.741;-0.010508
6.742;-0.011001
6.743;-0.010179
6.744;-0.009357
6.745;-0.009193
6.746;-0.0087
6.747;-0.008371
6.748;-0.007056
6.749;-0.007385
6.75;-0.007549
6.751;-0.006398
6.752;-0.007878
6.753;-0.007878
6.754;-0.008371
6.755;-0.009029
6.756;-0.010344
6.757;-0.011166
6.758;-0.009357
6.759;-0.011166
6.76;-0.010015
6.761;-0.009686
6.762;-0.010179
6.763;-0.009029
6.764;-0.008535
6.765;-0.008371
6.766;-0.007385
6.767;-0.007714
6.768;-0.007549
6.769;-0.007714
6.77;-0.0087
6.771;-0.007714
6.772;-0.0087
6.773;-0.009686
6.774;-0.009686
6.775;-0.009522
6.776;-0.011001
6.777;-0.010015
6.778;-0.008535
6.779;-0.009851
6.78;-0.008371
6.781;-0.007549
6.782;-0.007549
6.783;-0.007385
6.784;-0.00722
6.785;-0.007549
6.786;-0.008207
6.787;-0.008535
6.788;-0.007549
6.789;-0.009193
6.79;-0.010508
6.791;-0.010344
6.792;-0.010015
6.793;-0.010179
6.794;-0.010344
6.795;-0.009357
6.796;-0.0087
6.797;-0.008042
6.798;-0.007385
6.799;-0.007714
6.8;-0.006563
6.801;-0.008042
6.802;-0.008371
6.803;-0.007878
6.804;-0.008042
6.805;-0.008535
6.806;-0.010015
6.807;-0.009193
6.808;-0.010179
6.809;-0.010837
6.81;-0.010508
6.811;-0.009029
6.812;-0.009851
6.813;-0.008371
6.814;-0.007714
6.815;-0.007878
6.816;-0.008207
6.817;-0.007714
6.818;-0.006563
6.819;-0.0087
6.82;-0.008535
6.821;-0.009522
6.822;-0.007549
6.823;-0.009851
6.824;-0.010837
6.825;-0.011659
6.826;-0.010837
6.827;-0.009851
6.828;-0.009851
6.829;-0.009686
6.83;-0.009522
6.831;-0.008371
6.832;-0.008864
6.833;-0.006398
6.834;-0.006892
6.835;-0.007878
6.836;-0.008042
6.837;-0.006727
6.838;-0.009357
6.839;-0.009851
6.84;-0.011166
6.841;-0.010508
6.842;-0.010015
6.843;-0.009851
6.844;-0.009193
6.845;-0.008864
6.846;-0.008535
6.847;-0.009357
6.848;-0.007878
6.849;-0.008042
6.85;-0.006727
6.851;-0.008371
6.852;-0.006892
6.853;-0.007878
6.854;-0.007385
6.855;-0.010015
6.856;-0.009686
6.857;-0.010344
6.858;-0.010179
6.859;-0.010344
6.86;-0.010015
6.861;-0.009029
6.862;-0.010837
6.863;-0.008207
6.864;-0.008042
6.865;-0.007385
6.866;-0.008042
6.867;-0.006563
6.868;-0.007878
6.869;-0.009029
6.87;-0.009851
6.871;-0.009193
6.872;-0.010179
6.873;-0.009193
6.874;-0.010508
6.875;-0.009851
6.876;-0.009193
6.877;-0.009851
6.878;-0.007878
6.879;-0.008371
6.88;-0.006892
6.881;-0.007878
6.882;-0.006563
6.883;-0.007056
6.884;-0.007714
6.885;-0.008535
6.886;-0.008535
6.887;-0.008371
6.888;-0.007878
6.889;-0.009193
6.89;-0.009357
6.891;-0.009522
6.892;-0.010508
6.893;-0.009357
6.894;-0.009686
6.895;-0.010508
6.896;-0.010508
6.897;-0.007385
6.898;-0.007714
6.899;-0.006892
6.9;-0.007385
6.901;-0.007056
6.902;-0.008371
6.903;-0.007878
6.904;-0.008535
6.905;-0.009029
6.906;-0.009357
6.907;-0.010344
6.908;-0.009686
6.909;-0.011001
6.91;-0.009029
6.911;-0.010179
6.912;-0.010508
6.913;-0.008371
6.914;-0.00722
6.915;-0.00722
6.916;-0.00722
6.917;-0.006563
6.918;-0.006563
6.919;-0.007056
6.92;-0.00607
6.921;-0.00607
6.922;-0.006892
6.923;-0.008042
6.924;-0.006563
6.925;-0.007714
6.926;-0.006563
6.927;-0.005576
6.928;-0.005083
6.929;-0.00459
6.93;-0.004426
6.931;-0.002289
6.932;-0.002946
6.933;-0.001796
6.934;-0.002289
6.935;-0.001796
6.936;-0.001467
6.937;-0.002617
6.938;-0.002782
6.939;-0.003768
6.94;-0.002289
6.941;-0.003439
6.942;-0.003933
6.943;-0.002782
6.944;-0.000974
6.945;-0.000809
6.946;-0.000152
6.947;1.27E-05
6.948;0.001492
6.949;0.000506
6.95;0.002807
6.951;0.001985
6.952;0.003629
6.953;0.004287
6.954;0.003958
6.955;0.003629
6.956;0.003136
6.957;0.003465
6.958;0.003136
6.959;0.004287
6.96;0.005602
6.961;0.007903
6.962;0.00741
6.963;0.007739
6.964;0.01004
6.965;0.01004
6.966;0.009876
6.967;0.011356
6.968;0.012177
6.969;0.012506
6.97;0.012177
6.971;0.012671
6.972;0.012506
6.973;0.013493
6.974;0.012342
6.975;0.012506
6.976;0.013821
6.977;0.013657
6.978;0.013986
6.979;0.012835
6.98;0.015465
6.981;0.015301
6.982;0.015136
6.983;0.013986
6.984;0.015958
6.985;0.01415
6.986;0.012506
6.987;0.012342
6.988;0.010698
6.989;0.009547
6.99;0.009383
6.991;0.007903
6.992;0.005438
6.993;0.008397
6.994;0.008397
6.995;0.007739
6.996;0.007575
6.997;0.006753
6.998;0.006424
6.999;0.007081
7;0.00741
7.001;0.006588
7.002;0.005602
7.003;0.005109
7.004;0.005438
7.005;0.003301
7.006;0.001985
7.007;0.000506
7.008;-0.000152
7.009;-0.000809
7.01;0.000177
7.011;-0.000152
7.012;0.000506
7.013;-0.001138
7.014;0.000342
7.015;-0.000316
7.016;0.000999
7.017;0.000177
7.018;0.000506
7.019;-0.001138
7.02;-0.002782
7.021;-0.002453
7.022;-0.003768
7.023;-0.003933
7.024;-0.005083
7.025;-0.005248
7.026;-0.006727
7.027;-0.006234
7.028;-0.006727
7.029;-0.005412
7.03;-0.005248
7.031;-0.005741
7.032;-0.005576
7.033;-0.004261
7.034;-0.005576
7.035;-0.006398
7.036;-0.005905
7.037;-0.005248
7.038;-0.006398
7.039;-0.008535
7.04;-0.007878
7.041;-0.010179
7.042;-0.01133
7.043;-0.010508
7.044;-0.008864
7.045;-0.007878
7.046;-0.008371
7.047;-0.009193
7.048;-0.009029
7.049;-0.008042
7.05;-0.007714
7.051;-0.006727
7.052;-0.008042
7.053;-0.007878
7.054;-0.008042
7.055;-0.009193
7.056;-0.010508
7.057;-0.011494
7.058;-0.012152
7.059;-0.011988
7.06;-0.01133
7.061;-0.010837
7.062;-0.01133
7.063;-0.011166
7.064;-0.010508
7.065;-0.009357
7.066;-0.009193
7.067;-0.010015
7.068;-0.011001
7.069;-0.012974
7.07;-0.011494
7.071;-0.013138
7.072;-0.01396
7.073;-0.015933
7.074;-0.01659
7.075;-0.018234
7.076;-0.019221
7.077;-0.020043
7.078;-0.021522
7.079;-0.022508
7.08;-0.02481
7.081;-0.025467
7.082;-0.028755
7.083;-0.029577
7.084;-0.03155
7.085;-0.033358
7.086;-0.037139
7.087;-0.038947
7.088;-0.041249
7.089;-0.041742
7.09;-0.043057
7.091;-0.042564
7.092;-0.044208
7.093;-0.042235
7.094;-0.036975
7.095;-0.033194
7.096;-0.027769
7.097;-0.021029
7.098;-0.012481
7.099;-0.003439
7.1;0.006753
7.101;0.015465
7.102;0.02615
7.103;0.036343
7.104;0.049822
7.105;0.062316
7.106;0.07333
7.107;0.086317
7.108;0.10029
7.109;0.111468
7.11;0.125277
7.111;0.137277
7.112;0.147962
7.113;0.160949
7.114;0.168018
7.115;0.178538
7.116;0.184292
7.117;0.186758
7.118;0.186758
7.119;0.182977
7.12;0.175579
7.121;0.163744
7.122;0.149277
7.123;0.135469
7.124;0.118537
7.125;0.103742
7.126;0.090262
7.127;0.077604
7.128;0.066919
7.129;0.056398
7.13;0.049
7.131;0.040945
7.132;0.032726
7.133;0.025822
7.134;0.019575
7.135;0.012835
7.136;0.006588
7.137;0.001821
7.138;-0.001631
7.139;-0.00607
7.14;-0.008371
7.141;-0.01281
7.142;-0.013631
7.143;-0.014289
7.144;-0.015933
7.145;-0.015275
7.146;-0.016755
7.147;-0.014618
7.148;-0.015604
7.149;-0.014453
7.15;-0.014289
7.151;-0.013467
7.152;-0.014125
7.153;-0.01396
7.154;-0.011659
7.155;-0.011659
7.156;-0.010508
7.157;-0.008042
7.158;-0.00722
7.159;-0.005741
7.16;-0.003275
7.161;-0.001467
7.162;0.000506
7.163;0.000999
7.164;0.002314
7.165;0.003629
7.166;0.004287
7.167;0.005273
7.168;0.005766
7.169;0.00478
7.17;0.00478
7.171;0.004616
7.172;0.004122
7.173;0.003301
7.174;0.001657
7.175;0.000506
7.176;0.000506
7.177;0.000506
7.178;-0.000645
7.179;1.27E-05
7.18;0.000177
7.181;0.001328
7.182;0.001163
7.183;0.001657
7.184;0.000342
7.185;0.000506
7.186;-0.001138
7.187;-0.000645
7.188;-0.001302
7.189;-0.002453
7.19;-0.00196
7.191;-0.002124
7.192;-0.002453
7.193;-0.002124
7.194;-0.001631
7.195;-0.00048
7.196;-0.001467
7.197;0.000999
7.198;0.00067
7.199;0.001657
7.2;0.001821
7.201;0.000999
7.202;0.001985
7.203;0.001492
7.204;0.002314
7.205;0.000177
7.206;-0.000152
7.207;-0.001138
7.208;-0.000645
7.209;0.000835
7.21;0.002479
7.211;0.002643
7.212;0.003136
7.213;0.003301
7.214;0.00478
7.215;0.006095
7.216;0.00478
7.217;0.007575
7.218;0.007246
7.219;0.005766
7.22;0.005602
7.221;0.007575
7.222;0.005602
7.223;0.006259
7.224;0.006424
7.225;0.006588
7.226;0.006753
7.227;0.008561
7.228;0.009218
7.229;0.009712
7.23;0.011027
7.231;0.012177
7.232;0.013328
7.233;0.013164
7.234;0.013821
7.235;0.013986
7.236;0.015465
7.237;0.015136
7.238;0.015301
7.239;0.014315
7.24;0.015136
7.241;0.016123
7.242;0.016123
7.243;0.016452
7.244;0.01678
7.245;0.019739
7.246;0.021054
7.247;0.021876
7.248;0.021712
7.249;0.022863
7.25;0.024342
7.251;0.025
7.252;0.025329
7.253;0.02615
7.254;0.025
7.255;0.027137
7.256;0.025657
7.257;0.025986
7.258;0.027466
7.259;0.026972
7.26;0.027301
7.261;0.029109
7.262;0.029603
7.263;0.033877
7.264;0.03437
7.265;0.035027
7.266;0.035027
7.267;0.036671
7.268;0.037986
7.269;0.037658
7.27;0.037986
7.271;0.038151
7.272;0.039302
7.273;0.039959
7.274;0.039466
7.275;0.040123
7.276;0.040288
7.277;0.042918
7.278;0.042589
7.279;0.043904
7.28;0.046041
7.281;0.047521
7.282;0.049494
7.283;0.050644
7.284;0.05048
7.285;0.052617
7.286;0.052453
7.287;0.052617
7.288;0.052946
7.289;0.052617
7.29;0.053768
7.291;0.05459
7.292;0.055576
7.293;0.055412
7.294;0.056562
7.295;0.058371
7.296;0.060836
7.297;0.061001
7.298;0.060836
7.299;0.063302
7.3;0.06396
7.301;0.064782
7.302;0.063631
7.303;0.065768
7.304;0.066426
7.305;0.065932
7.306;0.066097
7.307;0.066754
7.308;0.067576
7.309;0.066754
7.31;0.068398
7.311;0.070371
7.312;0.072179
7.313;0.072837
7.314;0.073659
7.315;0.075138
7.316;0.075303
7.317;0.07596
7.318;0.076946
7.319;0.076125
7.32;0.077604
7.321;0.076946
7.322;0.076618
7.323;0.07596
7.324;0.075631
7.325;0.074809
7.326;0.076125
7.327;0.077111
7.328;0.075796
7.329;0.076782
7.33;0.076453
7.331;0.07744
7.332;0.077768
7.333;0.076125
7.334;0.07744
7.335;0.074974
7.336;0.075138
7.337;0.073659
7.338;0.073659
7.339;0.072344
7.34;0.070864
7.341;0.0707
7.342;0.069549
7.343;0.068727
7.344;0.066426
7.345;0.066097
7.346;0.066097
7.347;0.066097
7.348;0.064289
7.349;0.063302
7.35;0.064124
7.351;0.061494
7.352;0.060508
7.353;0.059357
7.354;0.056562
7.355;0.056234
7.356;0.052781
7.357;0.051959
7.358;0.049987
7.359;0.048014
7.36;0.047521
7.361;0.047192
7.362;0.046206
7.363;0.04522
7.364;0.044398
7.365;0.042754
7.366;0.042754
7.367;0.040781
7.368;0.039959
7.369;0.037658
7.37;0.037658
7.371;0.03437
7.372;0.03289
7.373;0.031411
7.374;0.027466
7.375;0.028288
7.376;0.026479
7.377;0.025657
7.378;0.025657
7.379;0.024507
7.38;0.024671
7.381;0.023685
7.382;0.022205
7.383;0.022534
7.384;0.019739
7.385;0.020232
7.386;0.017438
7.387;0.016945
7.388;0.01563
7.389;0.013986
7.39;0.012013
7.391;0.011849
7.392;0.010369
7.393;0.009712
7.394;0.009054
7.395;0.008068
7.396;0.008397
7.397;0.007246
7.398;0.007739
7.399;0.008068
7.4;0.006917
7.401;0.006424
7.402;0.004451
7.403;0.003794
7.404;0.003301
7.405;0.002807
7.406;0.000835
7.407;-0.000152
7.408;-0.000316
7.409;-0.003933
7.41;-0.000809
7.411;-0.001138
7.412;-0.002289
7.413;-0.002453
7.414;-0.002453
7.415;-0.001796
7.416;-0.001467
7.417;-0.002617
7.418;-0.003768
7.419;-0.004755
7.42;-0.005083
7.421;-0.003933
7.422;-0.005248
7.423;-0.006727
7.424;-0.006234
7.425;-0.008535
7.426;-0.008864
7.427;-0.009029
7.428;-0.007714
7.429;-0.0087
7.43;-0.008207
7.431;-0.008371
7.432;-0.008042
7.433;-0.007549
7.434;-0.006892
7.435;-0.009193
7.436;-0.009686
7.437;-0.009193
7.438;-0.01133
7.439;-0.011001
7.44;-0.010673
7.441;-0.011988
7.442;-0.01281
7.443;-0.012316
7.444;-0.011659
7.445;-0.011823
7.446;-0.011659
7.447;-0.011166
7.448;-0.011166
7.449;-0.011001
7.45;-0.010179
7.451;-0.010179
7.452;-0.01133
7.453;-0.010508
7.454;-0.01133
7.455;-0.012152
7.456;-0.013631
7.457;-0.012974
7.458;-0.014125
7.459;-0.014453
7.46;-0.013303
7.461;-0.014618
7.462;-0.01396
7.463;-0.012152
7.464;-0.012316
7.465;-0.010508
7.466;-0.01133
7.467;-0.01133
7.468;-0.010837
7.469;-0.010508
7.47;-0.012645
7.471;-0.011988
7.472;-0.011823
7.473;-0.013796
7.474;-0.013631
7.475;-0.013467
7.476;-0.014782
7.477;-0.013467
7.478;-0.012481
7.479;-0.012974
7.48;-0.011988
7.481;-0.01133
7.482;-0.011001
7.483;-0.010015
7.484;-0.010837
7.485;-0.010673
7.486;-0.012974
7.487;-0.011823
7.488;-0.012316
7.489;-0.012481
7.49;-0.012316
7.491;-0.013467
7.492;-0.011823
7.493;-0.012481
7.494;-0.012645
7.495;-0.012152
7.496;-0.011001
7.497;-0.010508
7.498;-0.010015
7.499;-0.009193
7.5;-0.010344
7.501;-0.010673
7.502;-0.011001
7.503;-0.01133
7.504;-0.011494
7.505;-0.010344
7.506;-0.013303
7.507;-0.012645
7.508;-0.012316
7.509;-0.013138
7.51;-0.012974
7.511;-0.011494
7.512;-0.012974
7.513;-0.010179
7.514;-0.010015
7.515;-0.0087
7.516;-0.009686
7.517;-0.009851
7.518;-0.009851
7.519;-0.010179
7.52;-0.010673
7.521;-0.010673
7.522;-0.009522
7.523;-0.011166
7.524;-0.010837
7.525;-0.012152
7.526;-0.011001
7.527;-0.010837
7.528;-0.011823
7.529;-0.009851
7.53;-0.008207
7.531;-0.007714
7.532;-0.007878
7.533;-0.008371
7.534;-0.007714
7.535;-0.008535
7.536;-0.009193
7.537;-0.008864
7.538;-0.009357
7.539;-0.01133
7.54;-0.011001
7.541;-0.011001
7.542;-0.010673
7.543;-0.010015
7.544;-0.010837
7.545;-0.009357
7.546;-0.009851
7.547;-0.009029
7.548;-0.008371
7.549;-0.0087
7.55;-0.008042
7.551;-0.009193
7.552;-0.008042
7.553;-0.009193
7.554;-0.009193
7.555;-0.010508
7.556;-0.010837
7.557;-0.010015
7.558;-0.010344
7.559;-0.01133
7.56;-0.011659
7.561;-0.01133
7.562;-0.009522
7.563;-0.009522
7.564;-0.008371
7.565;-0.008371
7.566;-0.007878
7.567;-0.008371
7.568;-0.007878
7.569;-0.008042
7.57;-0.010344
7.571;-0.009851
7.572;-0.009522
7.573;-0.011823
7.574;-0.010508
7.575;-0.011823
7.576;-0.011659
7.577;-0.009357
7.578;-0.011166
7.579;-0.009522
7.58;-0.009357
7.581;-0.009029
7.582;-0.008042
7.583;-0.009193
7.584;-0.007714
7.585;-0.009193
7.586;-0.009193
7.587;-0.008371
7.588;-0.008535
7.589;-0.010837
7.59;-0.009851
7.591;-0.011001
7.592;-0.010508
7.593;-0.011001
7.594;-0.010673
7.595;-0.011001
7.596;-0.008371
7.597;-0.008371
7.598;-0.008207
7.599;-0.007714
7.6;-0.009522
7.601;-0.008042
7.602;-0.007878
7.603;-0.0087
7.604;-0.009686
7.605;-0.011166
7.606;-0.010015
7.607;-0.009357
7.608;-0.011166
7.609;-0.011001
7.61;-0.011659
7.611;-0.009522
7.612;-0.008864
7.613;-0.008371
7.614;-0.007878
7.615;-0.009686
7.616;-0.008535
7.617;-0.008371
7.618;-0.009686
7.619;-0.009357
7.62;-0.009357
7.621;-0.009357
7.622;-0.008535
7.623;-0.010673
7.624;-0.011001
7.625;-0.011166
7.626;-0.011823
7.627;-0.011166
7.628;-0.010837
7.629;-0.010179
7.63;-0.009357
7.631;-0.008535
7.632;-0.0087
7.633;-0.008042
7.634;-0.007714
7.635;-0.008864
7.636;-0.008207
7.637;-0.007878
7.638;-0.008864
7.639;-0.009686
7.64;-0.011988
7.641;-0.011166
7.642;-0.01133
7.643;-0.010673
7.644;-0.008864
7.645;-0.010673
7.646;-0.009193
7.647;-0.010344
7.648;-0.0087
7.649;-0.008535
7.65;-0.008207
7.651;-0.008207
7.652;-0.0087
7.653;-0.008371
7.654;-0.009193
7.655;-0.009357
7.656;-0.009357
7.657;-0.011494
7.658;-0.011166
7.659;-0.010508
7.66;-0.010673
7.661;-0.010673
7.662;-0.009851
7.663;-0.008535
7.664;-0.009522
7.665;-0.007549
7.666;-0.008207
7.667;-0.00722
7.668;-0.009029
7.669;-0.008042
7.67;-0.008371
7.671;-0.010015
7.672;-0.010344
7.673;-0.010179
7.674;-0.011001
7.675;-0.010673
7.676;-0.011988
7.677;-0.011001
7.678;-0.010015
7.679;-0.009851
7.68;-0.009029
7.681;-0.0087
7.682;-0.008042
7.683;-0.009029
7.684;-0.007878
7.685;-0.009193
7.686;-0.0087
7.687;-0.010508
7.688;-0.009686
7.689;-0.010837
7.69;-0.010837
7.691;-0.010344
7.692;-0.010344
7.693;-0.011166
7.694;-0.010508
7.695;-0.010344
7.696;-0.009522
7.697;-0.009029
7.698;-0.010179
7.699;-0.008207
7.7;-0.007714
7.701;-0.00722
7.702;-0.007714
7.703;-0.009357
7.704;-0.009851
7.705;-0.009029
7.706;-0.010015
7.707;-0.011494
7.708;-0.011001
7.709;-0.011659
7.71;-0.011166
7.711;-0.010837
7.712;-0.009851
7.713;-0.011166
7.714;-0.008864
7.715;-0.008042
7.716;-0.007056
7.717;-0.008042
7.718;-0.007549
7.719;-0.007714
7.72;-0.009686
7.721;-0.009522
7.722;-0.010673
7.723;-0.010344
7.724;-0.011494
7.725;-0.010837
7.726;-0.01133
7.727;-0.012152
7.728;-0.011659
7.729;-0.009851
7.73;-0.010179
7.731;-0.008042
7.732;-0.008207
7.733;-0.006727
7.734;-0.006727
7.735;-0.007549
7.736;-0.008371
7.737;-0.008207
7.738;-0.007878
7.739;-0.010015
7.74;-0.010179
7.741;-0.009522
7.742;-0.009851
7.743;-0.011659
7.744;-0.010344
7.745;-0.010179
7.746;-0.008042
7.747;-0.010015
7.748;-0.008535
7.749;-0.008371
7.75;-0.006727
7.751;-0.007549
7.752;-0.008042
7.753;-0.008864
7.754;-0.009193
7.755;-0.009357
7.756;-0.011001
7.757;-0.009686
7.758;-0.011494
7.759;-0.009522
7.76;-0.010508
7.761;-0.010344
7.762;-0.010673
7.763;-0.009686
7.764;-0.009029
7.765;-0.0087
7.766;-0.008042
7.767;-0.008864
7.768;-0.009029
7.769;-0.010344
7.77;-0.009193
7.771;-0.008535
7.772;-0.009851
7.773;-0.009851
7.774;-0.009686
7.775;-0.009193
7.776;-0.0087
7.777;-0.009193
7.778;-0.006892
7.779;-0.00722
7.78;-0.005576
7.781;-0.006727
7.782;-0.003933
7.783;-0.00459
7.784;-0.003768
7.785;-0.002453
7.786;-0.00459
7.787;-0.004426
7.788;-0.003768
7.789;-0.005083
7.79;-0.004755
7.791;-0.004261
7.792;-0.005741
7.793;-0.004755
7.794;-0.003604
7.795;-0.00196
7.796;-0.003933
7.797;-0.001796
7.798;-0.000974
7.799;0.000835
7.8;0.000342
7.801;1.27E-05
7.802;-0.000645
7.803;-0.00048
7.804;1.27E-05
7.805;0.000999
7.806;0.000835
