Wavelength (nm),Absorbance Solution #6,Transmittance Solution #6,,Untitled.sp,,,Solution #6,
174.415,0.017,96.079,,2026-02-25 19:50:14,,Analysis Wavelength,,
174.805,0.026,94.143,,Analyze Solution,,Integration Time,10 ms,
175.195,0.052,88.625,,Absorbance/Transmittance,,Number of Scans to Average,1,
175.586,0.057,87.767,,,,Smoothing,0,
175.976,0.029,93.577
176.367,0.161,68.974
176.758,0.128,74.395
177.148,0.147,71.206
177.539,0.159,69.312
177.930,0.029,93.577
178.321,0.137,72.889
178.712,0.000,100.000
179.102,0.197,63.553
179.493,0.052,88.625
179.884,0.052,88.625
180.276,0.052,88.625
180.667,0.049,89.382
181.058,0.049,89.382
181.449,0.112,77.265
181.840,0.131,74.033
182.232,0.159,69.312
182.623,0.000,100.000
183.014,0.121,75.750
183.406,0.000,100.000
183.797,0.142,72.071
184.189,0.000,100.000
184.581,0.092,80.900
184.972,0.112,77.265
185.364,0.121,75.750
185.756,0.022,95.062
186.147,0.131,74.033
186.539,0.036,92.136
186.931,0.000,100.000
187.323,0.000,100.000
187.715,0.092,80.900
188.107,0.131,74.033
188.499,0.254,55.722
188.891,0.024,94.633
189.284,0.121,75.750
189.676,0.173,67.167
190.068,0.236,58.132
190.460,0.085,82.187
190.853,0.052,88.625
191.245,0.019,95.778
191.638,0.049,89.382
192.030,0.220,60.300
192.423,0.085,82.187
192.816,0.121,75.750
193.208,0.112,77.265
193.601,0.212,61.444
193.994,0.000,100.000
194.387,0.105,78.611
194.779,0.000,100.000
195.172,0.121,75.750
195.565,0.020,95.441
195.958,0.105,78.611
196.351,0.121,75.750
196.744,0.151,70.600
197.138,0.151,70.600
197.531,0.098,79.816
197.924,0.057,87.767
198.317,0.105,78.611
198.711,0.000,100.000
199.104,0.000,100.000
199.498,0.142,72.071
199.891,0.049,89.382
200.285,0.052,88.625
200.678,0.105,78.611
201.072,0.052,88.625
201.465,0.024,94.633
201.859,0.069,85.237
202.253,0.184,65.450
202.647,0.026,94.143
203.041,0.017,96.079
203.435,0.202,62.875
203.829,0.065,86.050
204.223,0.159,69.312
204.617,0.079,83.324
205.011,0.142,72.071
205.405,0.173,67.167
205.799,0.049,89.382
206.193,0.262,54.682
206.588,0.147,71.206
206.982,0.241,57.357
207.376,0.206,62.262
207.771,0.043,90.658
208.165,0.074,84.333
208.560,0.137,72.889
208.955,0.213,61.196
209.349,0.043,90.658
209.744,0.184,65.450
210.139,0.250,56.180
210.533,0.258,55.150
210.928,0.206,62.262
211.323,0.226,59.364
211.718,0.319,47.940
212.113,0.128,74.395
212.508,0.388,40.912
212.903,0.301,50.000
213.298,0.262,54.682
213.693,0.226,59.364
214.088,0.202,62.875
214.484,0.334,46.321
214.879,0.214,61.036
215.274,0.285,51.907
215.670,0.317,48.224
216.065,0.386,41.121
216.461,0.301,50.000
216.856,0.328,46.971
217.252,0.370,42.643
217.647,0.532,29.400
218.043,0.378,41.868
218.439,0.444,35.955
218.835,0.323,47.548
219.230,0.484,32.833
219.626,0.516,30.466
220.022,0.542,28.690
220.418,0.562,27.412
220.814,0.615,24.250
221.210,0.590,25.681
221.606,0.713,19.361
222.002,0.604,24.910
222.399,0.621,23.947
222.795,0.683,20.739
223.191,0.790,16.220
223.587,0.687,20.571
223.984,0.694,20.234
224.380,0.687,20.571
224.777,0.659,21.909
225.173,0.715,19.266
225.570,0.694,20.227
225.966,0.649,22.453
226.363,0.716,19.243
226.760,0.660,21.876
227.156,0.625,23.724
227.553,0.743,18.057
227.950,0.705,19.724
228.347,0.689,20.482
228.744,0.691,20.348
229.141,0.760,17.383
229.538,0.730,18.640
229.935,0.778,16.676
230.332,0.734,18.435
230.729,0.758,17.474
231.127,0.764,17.227
231.524,0.794,16.073
231.921,0.736,18.386
232.318,0.844,14.309
232.716,0.825,14.961
233.113,0.864,13.674
233.511,0.767,17.104
233.908,0.830,14.786
234.306,0.809,15.528
234.704,0.825,14.963
235.101,0.827,14.896
235.499,0.885,13.041
235.897,0.856,13.929
236.294,0.883,13.102
236.692,0.879,13.214
237.090,0.868,13.545
237.488,0.872,13.439
237.886,0.841,14.436
238.284,0.860,13.816
238.682,0.875,13.323
239.080,0.946,11.328
239.479,0.849,14.174
239.877,0.942,11.421
240.275,0.941,11.468
240.673,0.977,10.534
241.072,0.946,11.330
241.470,0.977,10.534
241.869,0.934,11.641
242.267,0.923,11.950
242.666,0.966,10.804
243.064,1.066,8.591
243.463,1.042,9.082
243.862,1.061,8.698
244.260,0.959,10.985
244.659,0.980,10.477
245.058,1.101,7.923
245.457,1.052,8.865
245.856,1.038,9.167
246.255,1.049,8.930
246.654,1.082,8.278
247.053,1.099,7.953
247.452,1.125,7.500
247.851,1.091,8.105
248.250,1.112,7.719
248.649,1.074,8.436
249.049,1.071,8.500
249.448,1.070,8.509
249.847,1.098,7.979
250.247,1.093,8.067
250.646,1.155,7.005
251.046,1.166,6.826
251.445,1.134,7.337
251.845,1.133,7.364
252.245,1.176,6.670
252.644,1.159,6.938
253.044,1.246,5.673
253.444,1.163,6.874
253.844,1.141,7.220
254.243,1.148,7.105
254.643,1.213,6.120
255.043,1.164,6.858
255.443,1.179,6.618
255.843,1.181,6.593
256.243,1.251,5.612
256.643,1.309,4.908
257.044,1.145,7.164
257.444,1.203,6.260
257.844,1.199,6.317
258.244,1.264,5.444
258.645,1.216,6.087
259.045,1.185,6.526
259.446,1.158,6.950
259.846,1.174,6.704
260.247,1.145,7.157
260.647,1.162,6.881
261.048,1.174,6.705
261.449,1.130,7.409
261.849,1.127,7.466
262.250,1.145,7.155
262.651,1.066,8.585
263.052,1.135,7.335
263.453,1.081,8.289
263.854,1.075,8.408
264.255,1.051,8.883
264.656,1.043,9.053
265.057,1.028,9.386
265.458,1.046,8.989
265.859,0.990,10.224
266.260,0.989,10.247
266.661,1.031,9.320
267.063,0.995,10.106
267.464,0.961,10.927
267.865,0.977,10.555
268.267,0.964,10.869
268.668,0.896,12.700
269.070,0.911,12.277
269.471,0.898,12.654
269.873,0.913,12.219
270.275,0.852,14.060
270.676,0.854,14.005
271.078,0.835,14.635
271.480,0.841,14.430
271.882,0.806,15.629
272.284,0.789,16.259
272.686,0.796,15.995
273.088,0.790,16.206
273.490,0.767,17.109
273.892,0.737,18.308
274.294,0.734,18.469
274.696,0.750,17.786
275.098,0.719,19.100
275.500,0.698,20.025
275.902,0.689,20.487
276.305,0.681,20.840
276.707,0.663,21.727
277.110,0.639,22.987
277.512,0.649,22.414
277.915,0.641,22.845
278.317,0.638,23.024
278.720,0.603,24.924
279.122,0.592,25.596
279.525,0.572,26.781
279.928,0.577,26.467
280.330,0.560,27.547
280.733,0.542,28.707
281.136,0.526,29.797
281.539,0.525,29.834
281.942,0.507,31.111
282.345,0.499,31.675
282.748,0.479,33.208
283.151,0.462,34.511
283.554,0.457,34.881
283.957,0.452,35.352
284.360,0.433,36.935
284.764,0.433,36.876
285.167,0.417,38.302
285.570,0.421,37.966
285.974,0.397,40.090
286.377,0.389,40.877
286.780,0.375,42.134
287.184,0.377,41.930
287.587,0.379,41.800
287.991,0.359,43.791
288.395,0.358,43.837
288.798,0.338,45.951
289.202,0.310,48.926
289.606,0.332,46.576
290.010,0.310,49.020
290.413,0.309,49.096
290.817,0.310,48.969
291.221,0.297,50.477
291.625,0.293,50.884
292.029,0.285,51.856
292.433,0.273,53.279
292.837,0.260,54.971
293.242,0.268,53.972
293.646,0.272,53.424
294.050,0.254,55.768
294.454,0.254,55.737
294.859,0.247,56.687
295.263,0.244,56.985
295.667,0.247,56.560
296.072,0.245,56.862
296.476,0.238,57.854
296.881,0.236,58.073
297.285,0.244,56.978
297.690,0.227,59.262
298.095,0.223,59.856
298.499,0.235,58.182
298.904,0.243,57.202
299.309,0.217,60.667
299.714,0.232,58.675
300.119,0.237,57.960
300.524,0.239,57.728
300.929,0.220,60.191
301.334,0.244,57.074
301.739,0.219,60.354
302.144,0.230,58.893
302.549,0.229,59.049
302.954,0.221,60.168
303.359,0.229,58.973
303.764,0.223,59.778
304.170,0.228,59.103
304.575,0.241,57.393
304.981,0.219,60.376
305.386,0.220,60.200
305.791,0.210,61.637
306.197,0.236,58.062
306.603,0.234,58.318
307.008,0.218,60.493
307.414,0.224,59.679
307.819,0.221,60.182
308.225,0.219,60.439
308.631,0.228,59.088
309.037,0.214,61.065
309.443,0.219,60.458
309.849,0.213,61.288
310.254,0.213,61.264
310.660,0.205,62.304
311.066,0.204,62.557
311.473,0.206,62.225
311.879,0.209,61.792
312.285,0.203,62.616
312.691,0.198,63.400
313.097,0.200,63.157
313.504,0.198,63.423
313.910,0.196,63.694
314.316,0.198,63.407
314.723,0.193,64.161
315.129,0.188,64.805
315.536,0.189,64.744
315.942,0.182,65.810
316.349,0.179,66.258
316.755,0.168,67.872
317.162,0.181,65.922
317.569,0.176,66.677
317.975,0.172,67.272
318.382,0.160,69.135
318.789,0.157,69.664
319.196,0.163,68.656
319.603,0.157,69.656
320.010,0.156,69.776
320.417,0.148,71.040
320.824,0.145,71.546
321.231,0.140,72.430
321.638,0.138,72.698
322.045,0.132,73.850
322.452,0.137,72.929
322.860,0.130,74.165
323.267,0.121,75.750
323.674,0.126,74.816
324.082,0.123,75.405
324.489,0.114,76.860
324.896,0.109,77.831
325.304,0.105,78.444
325.711,0.106,78.393
326.119,0.108,78.016
326.527,0.107,78.140
326.934,0.101,79.200
327.342,0.111,77.478
327.750,0.098,79.840
328.158,0.106,78.260
328.565,0.107,78.122
328.973,0.100,79.363
329.381,0.104,78.688
329.789,0.108,77.964
330.197,0.105,78.456
330.605,0.107,78.080
331.013,0.106,78.368
331.421,0.096,80.207
331.830,0.097,79.948
332.238,0.095,80.260
332.646,0.098,79.871
333.054,0.107,78.242
333.463,0.104,78.777
333.871,0.117,76.398
334.279,0.122,75.576
334.688,0.108,78.045
335.096,0.115,76.803
335.505,0.118,76.186
335.913,0.130,74.131
336.322,0.138,72.695
336.731,0.122,75.454
337.139,0.122,75.487
337.548,0.126,74.846
337.957,0.124,75.218
338.366,0.138,72.847
338.775,0.118,76.130
339.183,0.122,75.522
339.592,0.107,78.176
340.001,0.123,75.405
340.410,0.146,71.501
340.819,0.157,69.664
341.229,0.163,68.682
341.638,0.164,68.518
342.047,0.181,65.992
342.456,0.182,65.813
342.865,0.159,69.363
343.275,0.147,71.293
343.684,0.160,69.164
344.093,0.159,69.362
344.503,0.175,66.905
344.912,0.168,67.915
345.322,0.177,66.469
345.731,0.190,64.520
346.141,0.187,65.035
346.551,0.195,63.859
346.960,0.188,64.891
347.370,0.188,64.817
347.780,0.199,63.202
348.190,0.195,63.861
348.599,0.211,61.464
349.009,0.213,61.165
349.419,0.220,60.323
349.829,0.222,59.928
350.239,0.221,60.184
350.649,0.224,59.653
351.059,0.229,59.027
351.469,0.246,56.767
351.879,0.241,57.439
352.290,0.244,57.041
352.700,0.253,55.900
353.110,0.254,55.671
353.521,0.260,54.899
353.931,0.260,54.954
354.341,0.266,54.148
354.752,0.261,54.788
355.162,0.278,52.778
355.573,0.277,52.790
355.983,0.280,52.514
356.394,0.293,50.932
356.805,0.291,51.111
357.215,0.292,51.056
357.626,0.287,51.611
358.037,0.301,50.058
358.447,0.306,49.405
358.858,0.312,48.744
359.269,0.322,47.616
359.680,0.332,46.559
360.091,0.331,46.695
360.502,0.325,47.354
360.913,0.336,46.085
361.324,0.348,44.892
361.735,0.352,44.441
362.146,0.351,44.556
362.558,0.365,43.158
362.969,0.371,42.590
363.380,0.368,42.875
363.791,0.369,42.733
364.203,0.404,39.450
364.614,0.385,41.248
365.026,0.397,40.084
365.437,0.393,40.458
365.849,0.418,38.203
366.260,0.411,38.854
366.672,0.416,38.383
367.083,0.420,38.055
367.495,0.424,37.682
367.907,0.421,37.918
368.319,0.428,37.314
368.730,0.443,36.068
369.142,0.446,35.825
369.554,0.457,34.894
369.966,0.458,34.870
370.378,0.452,35.348
370.790,0.464,34.320
371.202,0.485,32.736
371.614,0.484,32.784
372.026,0.482,32.934
372.438,0.486,32.683
372.850,0.498,31.740
373.263,0.500,31.613
373.675,0.514,30.584
374.087,0.509,30.948
374.500,0.526,29.768
374.912,0.517,30.381
375.324,0.528,29.679
375.737,0.536,29.076
376.149,0.555,27.840
376.562,0.558,27.642
376.975,0.561,27.497
377.387,0.583,26.116
377.800,0.578,26.399
378.212,0.570,26.909
378.625,0.573,26.730
379.038,0.616,24.212
379.451,0.605,24.842
379.864,0.610,24.562
380.277,0.589,25.755
380.689,0.618,24.093
381.102,0.632,23.308
381.515,0.620,24.015
381.928,0.637,23.083
382.342,0.638,22.994
382.755,0.652,22.281
383.168,0.666,21.591
383.581,0.649,22.425
383.994,0.663,21.743
384.408,0.652,22.281
384.821,0.682,20.804
385.234,0.670,21.372
385.648,0.686,20.604
386.061,0.701,19.891
386.475,0.706,19.684
386.888,0.693,20.291
387.302,0.699,20.007
387.715,0.689,20.446
388.129,0.680,20.891
388.542,0.706,19.701
388.956,0.726,18.808
389.370,0.730,18.630
389.784,0.736,18.357
390.198,0.747,17.898
390.611,0.750,17.779
391.025,0.757,17.507
391.439,0.779,16.625
391.853,0.789,16.246
392.267,0.770,16.984
392.681,0.771,16.946
393.095,0.780,16.584
393.509,0.790,16.236
393.924,0.776,16.761
394.338,0.797,15.973
394.752,0.791,16.168
395.166,0.819,15.158
395.581,0.813,15.396
395.995,0.836,14.579
396.409,0.806,15.647
396.824,0.848,14.181
397.238,0.854,14.007
397.653,0.862,13.729
398.067,0.856,13.938
398.482,0.825,14.966
398.897,0.818,15.213
399.311,0.825,14.970
399.726,0.862,13.741
400.141,0.865,13.654
400.555,0.869,13.534
400.970,0.855,13.956
401.385,0.884,13.073
401.800,0.887,12.965
402.215,0.908,12.349
402.630,0.887,12.969
403.045,0.917,12.104
403.460,0.893,12.796
403.875,0.915,12.156
404.290,0.896,12.699
404.705,0.903,12.513
405.120,0.893,12.792
405.536,0.900,12.580
405.951,0.885,13.029
406.366,0.915,12.166
406.782,0.902,12.522
407.197,0.939,11.498
407.612,0.918,12.085
408.028,0.918,12.092
408.443,0.889,12.913
408.859,0.925,11.875
409.274,0.909,12.326
409.690,0.928,11.794
410.106,0.929,11.778
410.521,0.980,10.471
410.937,0.949,11.236
411.353,0.915,12.175
411.769,0.931,11.711
412.184,0.945,11.344
412.600,0.934,11.641
413.016,0.932,11.682
413.432,0.932,11.685
413.848,0.914,12.189
414.264,0.946,11.325
414.680,0.938,11.523
415.096,0.927,11.829
415.512,0.938,11.545
415.928,0.943,11.409
416.345,0.913,12.224
416.761,0.914,12.187
417.177,0.945,11.341
417.593,0.938,11.547
418.010,0.932,11.698
418.426,0.926,11.852
418.843,0.953,11.145
419.259,0.940,11.472
419.676,0.921,11.984
420.092,0.941,11.467
420.509,0.962,10.904
420.925,0.936,11.591
421.342,0.925,11.896
421.759,0.939,11.502
422.175,0.903,12.497
422.592,0.909,12.334
423.009,0.901,12.552
423.426,0.895,12.736
423.843,0.937,11.570
424.259,0.899,12.626
424.676,0.906,12.415
425.093,0.897,12.676
425.510,0.886,13.016
425.927,0.925,11.877
426.345,0.927,11.819
426.762,0.899,12.620
427.179,0.916,12.143
427.596,0.903,12.499
428.013,0.938,11.533
428.431,0.903,12.508
428.848,0.931,11.716
429.265,0.926,11.857
429.683,0.881,13.152
430.100,0.855,13.950
430.517,0.850,14.141
430.935,0.877,13.263
431.352,0.879,13.214
431.770,0.858,13.876
432.188,0.871,13.470
432.605,0.894,12.757
433.023,0.864,13.667
433.441,0.878,13.239
433.858,0.842,14.386
434.276,0.880,13.189
434.694,0.869,13.510
435.112,0.894,12.754
435.530,0.858,13.873
435.948,0.849,14.159
436.366,0.840,14.470
436.784,0.884,13.064
437.202,0.857,13.907
437.620,0.857,13.897
438.038,0.836,14.594
438.456,0.867,13.573
438.874,0.857,13.905
439.292,0.873,13.387
439.711,0.847,14.220
440.129,0.867,13.577
440.547,0.810,15.476
440.965,0.835,14.615
441.384,0.842,14.372
441.802,0.842,14.372
442.221,0.862,13.747
442.639,0.815,15.313
443.058,0.825,14.947
443.476,0.807,15.610
443.895,0.836,14.604
444.314,0.831,14.772
444.732,0.831,14.772
445.151,0.795,16.028
445.570,0.814,15.330
445.989,0.795,16.036
446.407,0.816,15.292
446.826,0.818,15.207
447.245,0.793,16.102
447.664,0.771,16.956
448.083,0.784,16.436
448.502,0.777,16.729
448.921,0.779,16.635
449.340,0.791,16.172
449.759,0.780,16.612
450.178,0.772,16.899
450.598,0.740,18.216
451.017,0.737,18.322
451.436,0.743,18.075
451.855,0.725,18.836
452.275,0.712,19.407
452.694,0.711,19.446
453.113,0.693,20.277
453.533,0.708,19.608
453.952,0.698,20.063
454.372,0.697,20.112
454.791,0.671,21.346
455.211,0.680,20.900
455.630,0.689,20.451
456.050,0.690,20.403
456.470,0.679,20.937
456.889,0.666,21.601
457.309,0.653,22.229
457.729,0.668,21.467
458.149,0.644,22.704
458.569,0.633,23.306
458.989,0.627,23.631
459.408,0.648,22.491
459.828,0.627,23.609
460.248,0.619,24.059
460.668,0.615,24.250
461.089,0.597,25.300
461.509,0.582,26.178
461.929,0.614,24.344
462.349,0.595,25.433
462.769,0.588,25.805
463.189,0.590,25.695
463.610,0.596,25.377
464.030,0.587,25.859
464.450,0.566,27.157
464.871,0.546,28.436
465.291,0.518,30.372
465.711,0.509,30.965
466.132,0.513,30.664
466.552,0.540,28.828
466.973,0.524,29.946
467.394,0.502,31.460
467.814,0.505,31.273
468.235,0.501,31.577
468.656,0.478,33.271
469.076,0.494,32.035
469.497,0.479,33.195
469.918,0.470,33.920
470.339,0.474,33.559
470.760,0.472,33.737
471.180,0.462,34.520
471.601,0.457,34.922
472.022,0.462,34.531
472.443,0.443,36.094
472.864,0.429,37.268
473.285,0.449,35.534
473.706,0.432,36.986
474.128,0.423,37.738
474.549,0.398,39.996
474.970,0.397,40.078
475.391,0.388,40.889
475.813,0.383,41.353
476.234,0.383,41.433
476.655,0.380,41.687
477.077,0.363,43.373
477.498,0.346,45.041
477.919,0.362,43.480
478.341,0.355,44.193
478.762,0.343,45.384
479.184,0.338,45.941
479.606,0.319,47.991
480.027,0.315,48.362
480.449,0.327,47.075
480.870,0.315,48.374
481.292,0.307,49.267
481.714,0.312,48.717
482.136,0.308,49.185
482.558,0.310,48.963
482.979,0.319,48.016
483.401,0.370,42.643
483.823,0.377,41.971
484.245,0.349,44.800
484.667,0.300,50.077
485.089,0.196,63.645
485.511,0.146,71.478
485.933,0.142,72.094
486.355,0.219,60.368
486.778,0.201,62.920
487.200,0.208,62.014
487.622,0.220,60.262
488.044,0.209,61.769
488.467,0.194,63.909
488.889,0.190,64.526
489.311,0.192,64.290
489.734,0.184,65.470
490.156,0.164,68.485
490.579,0.166,68.223
491.001,0.162,68.900
491.424,0.164,68.580
491.846,0.163,68.754
492.269,0.161,68.984
492.691,0.146,71.500
493.114,0.133,73.592
493.537,0.131,73.911
493.959,0.130,74.186
494.382,0.146,71.408
494.805,0.132,73.747
495.228,0.133,73.616
495.651,0.117,76.435
496.074,0.105,78.565
496.497,0.105,78.492
496.919,0.119,76.020
497.342,0.119,75.959
497.766,0.119,75.956
498.189,0.100,79.443
498.612,0.095,80.269
499.035,0.098,79.782
499.458,0.094,80.452
499.881,0.103,78.976
500.304,0.112,77.227
500.728,0.104,78.795
501.151,0.086,82.002
501.574,0.101,79.173
501.998,0.082,82.773
502.421,0.097,80.069
502.844,0.084,82.426
503.268,0.098,79.780
503.691,0.094,80.625
504.115,0.090,81.313
504.539,0.095,80.432
504.962,0.095,80.294
505.386,0.078,83.566
505.809,0.090,81.285
506.233,0.091,81.148
506.657,0.095,80.398
507.081,0.091,81.148
507.504,0.090,81.353
507.928,0.094,80.598
508.352,0.116,76.507
508.776,0.110,77.576
509.200,0.106,78.275
509.624,0.104,78.640
510.048,0.120,75.938
510.472,0.101,79.244
510.896,0.123,75.287
511.320,0.113,77.055
511.744,0.117,76.352
512.168,0.117,76.424
512.592,0.110,77.559
513.017,0.114,76.882
513.441,0.120,75.892
513.865,0.113,77.059
514.289,0.137,72.937
514.714,0.138,72.809
515.138,0.118,76.182
515.563,0.125,75.014
515.987,0.125,74.938
516.411,0.133,73.654
516.836,0.145,71.558
517.261,0.148,71.136
517.685,0.168,67.932
518.110,0.151,70.629
518.534,0.135,73.301
518.959,0.150,70.754
519.384,0.145,71.576
519.808,0.156,69.784
520.233,0.170,67.593
520.658,0.146,71.432
521.083,0.152,70.503
521.508,0.154,70.180
521.933,0.154,70.098
522.358,0.165,68.427
522.782,0.174,66.957
523.207,0.174,66.959
523.632,0.164,68.553
524.058,0.181,65.907
524.483,0.170,67.605
524.908,0.177,66.548
525.333,0.182,65.810
525.758,0.197,63.601
526.183,0.171,67.485
526.609,0.178,66.337
527.034,0.190,64.604
527.459,0.199,63.286
527.884,0.181,65.880
528.310,0.190,64.564
528.735,0.172,67.268
529.161,0.168,67.867
529.586,0.177,66.468
530.012,0.178,66.344
530.437,0.176,66.666
530.863,0.185,65.360
531.288,0.187,65.009
531.714,0.185,65.249
532.140,0.183,65.674
532.565,0.161,69.003
532.991,0.164,68.540
533.417,0.171,67.433
533.843,0.172,67.343
534.268,0.156,69.808
534.694,0.152,70.489
535.120,0.138,72.857
535.546,0.164,68.585
535.972,0.153,70.367
536.398,0.170,67.618
536.824,0.164,68.477
537.250,0.161,69.055
537.676,0.148,71.145
538.102,0.137,72.961
538.528,0.153,70.343
538.954,0.137,72.904
539.381,0.152,70.549
539.807,0.153,70.264
540.233,0.140,72.461
540.659,0.147,71.220
541.086,0.146,71.377
541.512,0.144,71.755
541.938,0.142,72.071
542.365,0.122,75.563
542.791,0.144,71.761
543.218,0.139,72.679
543.644,0.131,73.970
544.071,0.115,76.681
544.497,0.115,76.800
544.924,0.122,75.502
545.351,0.137,72.862
545.777,0.139,72.546
546.204,0.146,71.392
546.631,0.138,72.806
547.057,0.137,73.028
547.484,0.112,77.317
547.911,0.112,77.210
548.338,0.134,73.474
548.765,0.130,74.193
549.192,0.127,74.682
549.619,0.136,73.127
550.046,0.148,71.137
550.473,0.142,72.104
550.900,0.152,70.533
551.327,0.128,74.498
551.754,0.137,73.011
552.181,0.147,71.322
552.608,0.150,70.754
553.035,0.148,71.078
553.462,0.164,68.585
553.890,0.167,68.118
554.317,0.159,69.273
554.744,0.153,70.269
555.172,0.147,71.256
555.599,0.149,71.038
556.026,0.170,67.532
556.454,0.169,67.831
556.881,0.164,68.496
557.309,0.171,67.461
557.736,0.164,68.576
558.164,0.181,65.846
558.591,0.200,63.030
559.019,0.206,62.234
559.447,0.198,63.359
559.874,0.171,67.491
560.302,0.199,63.210
560.730,0.208,62.004
561.158,0.204,62.549
561.585,0.218,60.534
562.013,0.220,60.261
562.441,0.218,60.595
562.869,0.221,60.082
563.297,0.218,60.486
563.725,0.213,61.277
564.153,0.217,60.678
564.581,0.228,59.210
565.009,0.237,57.958
565.437,0.248,56.481
565.865,0.247,56.659
566.293,0.252,55.988
566.721,0.253,55.842
567.149,0.246,56.737
567.578,0.265,54.269
568.006,0.275,53.127
568.434,0.270,53.687
568.862,0.269,53.885
569.291,0.276,52.934
569.719,0.279,52.622
570.148,0.286,51.813
570.576,0.273,53.293
571.004,0.286,51.743
571.433,0.298,50.345
571.861,0.299,50.195
572.290,0.313,48.630
572.719,0.312,48.701
573.147,0.297,50.488
573.576,0.295,50.735
574.004,0.304,49.639
574.433,0.312,48.734
574.862,0.333,46.415
575.291,0.339,45.829
575.719,0.348,44.915
576.148,0.345,45.213
576.577,0.333,46.455
577.006,0.324,47.474
577.435,0.312,48.751
577.864,0.334,46.360
578.293,0.363,43.363
578.722,0.368,42.895
579.151,0.376,42.094
579.580,0.384,41.334
580.009,0.393,40.444
580.438,0.375,42.128
580.867,0.336,46.086
581.296,0.319,47.955
581.725,0.331,46.624
582.155,0.365,43.184
582.584,0.390,40.778
583.013,0.420,38.026
583.443,0.423,37.723
583.872,0.421,37.961
584.301,0.399,39.869
584.731,0.378,41.836
585.160,0.392,40.573
585.590,0.408,39.044
586.019,0.413,38.626
586.449,0.406,39.251
586.878,0.407,39.164
587.308,0.407,39.181
587.737,0.418,38.186
588.167,0.432,37.001
588.597,0.427,37.411
589.026,0.449,35.580
589.456,0.434,36.787
589.886,0.465,34.303
590.315,0.475,33.495
590.745,0.488,32.506
591.175,0.518,30.359
591.605,0.489,32.460
592.035,0.472,33.733
592.465,0.455,35.058
592.895,0.473,33.640
593.325,0.483,32.863
593.755,0.493,32.163
594.185,0.495,31.960
594.615,0.482,32.950
595.045,0.490,32.393
595.475,0.520,30.200
595.905,0.537,29.071
596.335,0.539,28.896
596.766,0.551,28.104
597.196,0.556,27.815
597.626,0.557,27.742
598.056,0.575,26.598
598.487,0.553,27.962
598.917,0.571,26.841
599.347,0.590,25.693
599.778,0.573,26.742
600.208,0.578,26.398
600.639,0.590,25.720
601.069,0.600,25.111
601.500,0.617,24.163
601.930,0.618,24.083
602.361,0.620,23.969
602.791,0.627,23.618
603.222,0.626,23.651
603.653,0.661,21.807
604.083,0.674,21.180
604.514,0.699,20.001
604.945,0.689,20.481
605.376,0.706,19.670
605.806,0.714,19.310
606.237,0.737,18.311
606.668,0.740,18.209
607.099,0.742,18.094
607.530,0.747,17.888
607.961,0.765,17.184
608.392,0.773,16.862
608.823,0.776,16.737
609.254,0.800,15.865
609.685,0.796,15.992
610.116,0.811,15.442
610.547,0.844,14.331
610.978,0.850,14.127
611.409,0.843,14.369
611.841,0.879,13.200
612.272,0.913,12.220
612.703,0.910,12.292
613.134,0.903,12.501
613.566,0.937,11.566
613.997,0.967,10.778
614.428,0.963,10.879
614.860,0.938,11.534
615.291,0.944,11.388
615.723,1.006,9.860
616.154,0.974,10.624
616.586,0.992,10.194
617.017,0.998,10.056
617.449,1.019,9.576
617.880,1.032,9.280
618.312,1.083,8.254
618.744,1.040,9.128
619.175,1.053,8.858
619.607,1.101,7.917
620.039,1.089,8.148
620.470,1.090,8.125
620.902,1.148,7.112
621.334,1.163,6.873
621.766,1.135,7.335
622.198,1.127,7.461
622.630,1.157,6.969
623.062,1.169,6.782
623.493,1.166,6.816
623.925,1.173,6.711
624.357,1.160,6.916
624.789,1.191,6.443
625.221,1.166,6.827
625.654,1.216,6.087
626.086,1.187,6.503
626.518,1.178,6.632
626.950,1.180,6.604
627.382,1.213,6.120
627.814,1.199,6.331
628.247,1.203,6.261
628.679,1.189,6.473
629.111,1.207,6.215
629.544,1.202,6.286
629.976,1.224,5.976
630.408,1.204,6.250
630.841,1.197,6.346
631.273,1.201,6.290
631.706,1.209,6.178
632.138,1.213,6.124
632.571,1.195,6.389
633.003,1.188,6.480
633.436,1.165,6.835
633.868,1.127,7.470
634.301,1.184,6.547
634.733,1.127,7.469
635.166,1.161,6.905
635.599,1.138,7.281
636.032,1.121,7.572
636.464,1.115,7.678
636.897,1.111,7.745
637.330,1.101,7.917
637.763,1.076,8.398
638.196,1.054,8.830
638.629,1.005,9.894
639.061,1.007,9.844
639.494,1.023,9.477
639.927,0.992,10.194
640.360,0.980,10.466
640.793,0.987,10.307
641.226,0.951,11.201
641.659,0.946,11.318
642.093,0.900,12.601
642.526,0.891,12.844
642.959,0.898,12.634
643.392,0.871,13.474
643.825,0.863,13.719
644.258,0.800,15.844
644.692,0.791,16.196
645.125,0.785,16.406
645.558,0.751,17.745
645.992,0.754,17.602
646.425,0.732,18.524
646.858,0.701,19.908
647.292,0.697,20.108
647.725,0.695,20.162
648.159,0.661,21.808
648.592,0.638,23.030
649.026,0.622,23.897
649.459,0.620,23.995
649.893,0.585,26.017
650.326,0.581,26.231
650.760,0.558,27.686
651.194,0.540,28.861
651.627,0.504,31.363
652.061,0.507,31.121
652.495,0.492,32.186
652.929,0.466,34.218
653.362,0.468,34.003
653.796,0.558,27.685
654.230,0.755,17.590
654.664,0.484,32.842
655.098,0.143,71.987
655.532,0.128,74.410
655.966,0.218,60.576
656.400,0.358,43.860
656.834,0.352,44.458
657.268,0.337,46.019
657.702,0.323,47.572
658.136,0.314,48.555
658.570,0.304,49.663
659.004,0.293,50.966
659.438,0.283,52.116
659.872,0.274,53.174
660.306,0.259,55.052
660.741,0.264,54.490
661.175,0.242,57.316
661.609,0.231,58.724
662.043,0.213,61.189
662.478,0.222,59.990
662.912,0.210,61.688
663.347,0.191,64.487
663.781,0.193,64.071
664.215,0.185,65.348
664.650,0.176,66.751
665.084,0.170,67.582
665.519,0.167,68.102
665.953,0.155,69.917
666.388,0.154,70.183
666.822,0.138,72.739
667.257,0.142,72.151
667.692,0.133,73.549
668.126,0.128,74.475
668.561,0.132,73.843
668.996,0.128,74.459
669.430,0.123,75.309
669.865,0.109,77.887
670.300,0.113,77.046
670.735,0.113,77.042
671.170,0.099,79.666
671.604,0.079,83.302
672.039,0.086,81.990
672.474,0.082,82.761
672.909,0.092,80.952
673.344,0.085,82.212
673.779,0.077,83.764
674.214,0.077,83.847
674.649,0.078,83.655
675.084,0.073,84.613
675.519,0.065,86.011
675.954,0.057,87.707
676.390,0.071,84.949
676.825,0.060,87.110
677.260,0.053,88.423
677.695,0.057,87.686
678.130,0.057,87.604
678.566,0.055,88.190
679.001,0.055,88.091
679.436,0.043,90.565
679.871,0.047,89.787
680.307,0.055,88.081
680.742,0.039,91.381
681.178,0.037,91.776
681.613,0.036,92.070
682.048,0.041,90.939
682.484,0.043,90.530
682.919,0.037,91.758
683.355,0.037,91.794
683.791,0.043,90.658
684.226,0.034,92.450
684.662,0.022,94.962
685.097,0.028,93.847
685.533,0.029,93.585
685.969,0.031,93.210
686.404,0.018,95.917
686.840,0.021,95.295
687.276,0.017,96.247
687.712,0.023,94.945
688.147,0.023,94.828
688.583,0.024,94.641
689.019,0.026,94.199
689.455,0.024,94.656
689.891,0.027,93.870
690.327,0.030,93.394
690.763,0.021,95.296
691.199,0.026,94.203
691.635,0.028,93.700
692.071,0.024,94.568
692.507,0.014,96.843
692.943,0.015,96.621
693.379,0.013,97.143
693.815,0.025,94.397
694.251,0.020,95.486
694.687,0.023,94.948
695.123,0.015,96.653
695.560,0.016,96.422
695.996,0.024,94.682
696.432,0.023,94.940
696.868,0.010,97.733
697.305,0.022,95.107
697.741,0.011,97.547
698.177,0.010,97.806
698.614,0.009,97.875
699.050,0.012,97.239
699.487,0.019,95.617
699.923,0.016,96.415
700.360,0.013,96.946
700.796,0.021,95.216
701.233,0.011,97.538
701.669,0.018,96.036
702.106,0.012,97.221
702.542,0.014,96.795
702.979,0.024,94.626
703.415,0.014,96.927
703.852,0.016,96.428
704.289,0.013,97.075
704.726,0.020,95.582
705.162,0.025,94.361
705.599,0.022,95.117
706.036,0.018,95.997
706.473,0.013,97.095
706.909,0.017,96.191
707.346,0.019,95.682
707.783,0.018,95.927
708.220,0.017,96.114
708.657,0.016,96.436
709.094,0.020,95.463
709.531,0.017,96.247
709.968,0.013,97.062
710.405,0.007,98.476
710.842,0.016,96.478
711.279,0.016,96.369
711.716,0.024,94.695
712.153,0.024,94.621
712.590,0.015,96.500
713.027,0.012,97.171
713.465,0.004,99.138
713.902,0.007,98.329
714.339,0.010,97.789
714.776,0.009,97.951
715.214,0.004,99.072
715.651,0.008,98.070
716.088,0.008,98.156
716.525,0.019,95.620
716.963,0.020,95.529
717.400,0.011,97.493
717.838,0.014,96.720
718.275,0.008,98.142
718.713,0.016,96.314
719.150,0.009,97.920
719.587,0.011,97.417
720.025,0.017,96.211
720.463,0.004,98.979
720.900,0.007,98.430
721.338,0.004,99.153
721.775,0.017,96.261
722.213,0.005,98.817
722.651,0.017,96.119
723.088,0.018,96.005
723.526,0.006,98.579
723.964,8.128E-4,99.813
724.401,0.005,98.765
724.839,0.010,97.708
725.277,0.007,98.507
725.715,0.006,98.605
726.153,0.005,98.936
726.591,0.011,97.471
727.028,0.012,97.284
727.466,0.015,96.619
727.904,0.008,98.175
728.342,0.008,98.279
728.780,0.002,99.618
729.218,0.006,98.589
729.656,0.009,97.885
730.094,0.007,98.424
730.532,0.009,98.062
730.970,0.004,99.041
731.409,0.003,99.404
731.847,0.004,99.096
732.285,0.002,99.480
732.723,0.003,99.376
733.161,0.008,98.226
733.599,0.000,100.000
734.038,0.001,99.742
734.476,0.000,100.000
734.914,0.004,98.997
735.353,8.599E-4,99.802
735.791,0.011,97.506
736.229,0.000,100.000
736.668,0.000,100.000
737.106,0.002,99.458
737.544,0.010,97.718
737.983,0.008,98.203
738.421,0.008,98.175
738.860,0.000,100.000
739.298,0.006,98.537
739.737,0.000,100.000
740.175,0.002,99.642
740.614,0.009,97.943
741.053,0.006,98.726
741.491,0.013,97.095
741.930,0.005,98.822
742.369,0.002,99.519
742.807,0.000,100.000
743.246,0.000,100.000
743.685,0.000,100.000
744.123,0.002,99.445
744.562,0.004,99.152
745.001,0.004,99.140
745.440,0.000,100.000
745.879,0.005,98.789
746.317,0.003,99.339
746.756,0.004,98.973
747.195,0.000,100.000
747.634,0.011,97.570
748.073,0.006,98.677
748.512,0.002,99.473
748.951,0.006,98.607
749.390,0.002,99.437
749.829,0.000,100.000
750.268,0.005,98.749
750.707,0.000,100.000
751.146,0.009,97.941
751.585,0.006,98.639
752.025,0.002,99.485
752.464,0.013,97.067
752.903,0.007,98.398
753.342,0.003,99.410
753.781,0.002,99.443
754.221,0.000,100.000
754.660,0.000,100.000
755.099,0.003,99.313
755.538,0.009,98.029
755.978,0.003,99.237
756.417,0.014,96.924
756.857,0.000,100.000
757.296,3.194E-4,99.926
757.735,9.122E-4,99.790
758.175,0.003,99.356
758.614,5.913E-4,99.864
759.054,0.000,100.000
759.493,0.000,100.000
759.933,0.000,100.000
760.372,8.827E-4,99.797
760.812,8.498E-4,99.805
761.251,5.253E-4,99.879
761.691,0.007,98.404
762.131,0.013,97.022
762.570,8.143E-4,99.813
763.010,0.008,98.243
763.450,0.001,99.693
763.889,0.005,98.811
764.329,0.000,100.000
764.769,0.000,100.000
765.209,0.005,98.866
765.648,0.000,100.000
766.088,0.000,100.000
766.528,0.004,99.059
766.968,0.000,100.000
767.408,0.011,97.483
767.848,0.006,98.566
768.288,0.008,98.219
768.728,0.000,100.000
769.168,0.003,99.384
769.608,0.000,100.000
770.048,0.000,100.000
770.488,0.000,100.000
770.928,0.000,100.000
771.368,0.007,98.410
771.808,0.001,99.721
772.248,0.000,100.000
772.688,4.372E-4,99.899
773.128,9.066E-4,99.791
773.568,0.001,99.757
774.008,0.005,98.908
774.449,0.002,99.494
774.889,0.000,100.000
775.329,0.005,98.955
775.769,0.002,99.539
776.210,4.810E-4,99.889
776.650,0.004,99.064
777.090,0.003,99.384
777.531,8.075E-4,99.814
777.971,0.000,100.000
778.411,2.471E-4,99.943
778.852,0.006,98.532
779.292,0.000,100.000
779.733,0.005,98.955
780.173,0.006,98.581
780.614,0.000,100.000
781.054,0.000,100.000
781.495,0.000,100.000
781.935,0.002,99.580
782.376,0.000,100.000
782.816,0.000,100.000
783.257,7.303E-4,99.832
783.698,0.000,100.000
784.138,0.003,99.303
784.579,0.002,99.654
785.020,0.000,100.000
785.460,0.002,99.460
785.901,0.001,99.662
786.342,0.000,100.000
786.783,0.000,100.000
787.223,0.000,100.000
787.664,0.000,100.000
788.105,0.000,100.000
788.546,0.000,100.000
788.987,0.003,99.278
789.428,0.005,98.871
789.869,0.002,99.495
790.310,0.004,99.024
790.751,0.010,97.702
791.192,0.009,97.902
791.632,5.676E-4,99.869
792.073,0.008,98.275
792.515,0.000,100.000
792.956,5.304E-4,99.878
793.397,0.000,100.000
793.838,0.000,100.000
794.279,0.003,99.337
794.720,0.000,100.000
795.161,0.000,100.000
795.602,0.000,100.000
796.043,0.005,98.859
796.485,0.003,99.358
796.926,0.000,100.000
797.367,0.000,100.000
797.808,0.002,99.577
798.250,0.009,97.965
798.691,6.874E-4,99.842
799.132,0.011,97.487
799.574,0.005,98.829
800.015,0.009,97.853
800.456,0.005,98.844
800.898,0.001,99.729
801.339,0.000,100.000
801.781,0.000,100.000
802.222,0.000,100.000
802.664,0.000,100.000
803.105,0.000,100.000
803.547,0.005,98.963
803.988,0.000,100.000
804.430,0.000,100.000
804.871,0.000,100.000
805.313,0.000,100.000
805.754,0.000,100.000
806.196,0.000,100.000
806.638,0.002,99.519
807.079,0.000,100.000
807.521,0.000,100.000
807.963,0.000,100.000
808.404,0.000,100.000
808.846,0.003,99.216
809.288,0.005,98.965
809.730,0.002,99.573
810.171,0.000,100.000
810.613,0.000,100.000
811.055,0.005,98.967
811.497,0.004,99.014
811.939,6.471E-4,99.851
812.381,0.002,99.631
812.823,0.000,100.000
813.265,0.000,100.000
813.706,0.000,100.000
814.148,0.000,100.000
814.590,0.000,100.000
815.032,0.000,100.000
815.474,0.004,99.151
815.916,0.000,100.000
816.359,0.000,100.000
816.801,6.014E-4,99.862
817.243,7.717E-4,99.822
817.685,0.003,99.258
818.127,0.003,99.216
818.569,0.005,98.968
819.011,0.000,100.000
819.453,0.000,100.000
819.896,0.000,100.000
820.338,0.005,98.818
820.780,0.006,98.737
821.222,0.008,98.082
821.665,0.000,100.000
822.107,0.007,98.498
822.549,0.000,100.000
822.992,0.000,100.000
823.434,0.000,100.000
823.876,0.000,100.000
824.319,0.000,100.000
824.761,0.000,100.000
825.203,0.000,100.000
825.646,0.000,100.000
826.088,0.000,100.000
826.531,0.002,99.650
826.973,0.000,100.000
827.416,1.698E-4,99.961
827.858,0.000,100.000
828.301,0.000,100.000
828.744,8.628E-4,99.802
829.186,8.890E-4,99.796
829.629,5.261E-4,99.879
830.071,0.000,100.000
830.514,0.000,100.000
830.957,0.000,100.000
831.399,0.000,100.000
831.842,0.000,100.000
832.285,0.000,100.000
832.727,0.000,100.000
833.170,0.003,99.253
833.613,0.000,100.000
834.056,0.000,100.000
834.498,0.005,98.856
834.941,0.000,100.000
835.384,0.000,100.000
835.827,0.000,100.000
836.270,0.003,99.258
836.713,0.000,100.000
837.156,0.000,100.000
837.599,9.612E-4,99.779
838.042,0.000,100.000
838.484,0.000,100.000
838.927,0.000,100.000
839.370,0.000,100.000
839.813,0.000,100.000
840.256,4.480E-4,99.897
840.700,0.000,100.000
841.143,0.004,99.184
841.586,0.000,100.000
842.029,0.012,97.337
842.472,0.000,100.000
842.915,0.000,100.000
843.358,0.004,99.038
843.801,3.759E-5,99.991
844.244,0.000,100.000
844.688,0.000,100.000
845.131,0.000,100.000
845.574,0.000,100.000
846.017,0.000,100.000
846.461,0.000,100.000
846.904,0.000,100.000
847.347,0.000,100.000
847.791,0.003,99.395
848.234,8.498E-4,99.805
848.677,0.006,98.697
849.121,0.000,100.000
849.564,2.169E-4,99.950
850.007,0.000,100.000
850.451,0.005,98.819
850.894,0.000,100.000
851.338,0.000,100.000
851.781,0.000,100.000
852.225,0.000,100.000
852.668,0.000,100.000
853.112,0.000,100.000
853.555,0.000,100.000
853.999,0.001,99.719
854.442,0.000,100.000
854.886,0.000,100.000
855.330,0.000,100.000
855.773,0.000,100.000
856.217,0.000,100.000
856.660,0.000,100.000
857.104,0.000,100.000
857.548,0.000,100.000
857.992,0.000,100.000
858.435,0.000,100.000
858.879,0.000,100.000
859.323,0.000,100.000
859.767,0.000,100.000
860.210,0.000,100.000
860.654,0.000,100.000
861.098,0.000,100.000
861.542,0.000,100.000
861.986,6.069E-4,99.860
862.430,0.000,100.000
862.873,4.456E-4,99.897
863.317,0.000,100.000
863.761,0.000,100.000
864.205,0.000,100.000
864.649,1.126E-4,99.974
865.093,0.000,100.000
865.537,0.000,100.000
865.981,0.000,100.000
866.425,0.000,100.000
866.869,0.000,100.000
867.313,0.000,100.000
867.757,0.000,100.000
868.201,0.000,100.000
868.645,0.000,100.000
869.090,0.000,100.000
869.534,0.000,100.000
869.978,0.000,100.000
870.422,0.000,100.000
870.866,0.000,100.000
871.310,0.000,100.000
871.755,0.000,100.000
872.199,0.000,100.000
872.643,0.000,100.000
873.087,0.000,100.000
873.532,0.000,100.000
873.976,0.000,100.000
874.420,0.000,100.000
874.865,0.000,100.000
875.309,0.000,100.000
875.753,0.000,100.000
876.198,0.000,100.000
876.642,0.000,100.000
877.086,0.000,100.000
877.531,2.123E-4,99.951
877.975,0.000,100.000
878.420,0.000,100.000
878.864,0.000,100.000
879.309,0.000,100.000
879.753,0.000,100.000
880.198,0.000,100.000
880.642,0.000,100.000
881.087,0.000,100.000
881.531,0.000,100.000
881.976,0.000,100.000
882.420,0.000,100.000
882.865,0.000,100.000
883.310,0.000,100.000
883.754,0.000,100.000
884.199,0.000,100.000
884.644,0.000,100.000
885.088,0.000,100.000
885.533,0.000,100.000
885.978,0.000,100.000
886.422,0.000,100.000
886.867,0.000,100.000
887.312,0.000,100.000
887.757,0.000,100.000
888.201,1.400E-4,99.968
888.646,0.000,100.000
889.091,0.000,100.000
889.536,0.000,100.000
889.981,0.000,100.000
890.426,0.000,100.000
890.871,0.000,100.000
891.315,0.000,100.000
891.760,0.000,100.000
892.205,0.000,100.000
892.650,0.000,100.000
893.095,0.000,100.000
893.540,0.000,100.000
893.985,0.000,100.000
894.430,0.000,100.000
894.875,0.000,100.000
895.320,0.000,100.000
895.765,0.000,100.000
896.210,0.000,100.000
896.655,0.000,100.000
897.100,0.000,100.000
897.546,0.000,100.000
897.991,0.000,100.000
898.436,0.000,100.000
898.881,0.000,100.000
899.326,0.000,100.000
899.771,0.000,100.000
900.216,0.000,100.000
900.662,0.000,100.000
901.107,0.000,100.000
901.552,0.000,100.000
901.997,0.000,100.000
902.443,0.000,100.000
902.888,0.000,100.000
903.333,0.000,100.000
903.779,0.006,98.593
904.224,0.000,100.000
904.669,0.000,100.000
905.115,0.000,100.000
905.560,0.000,100.000
906.005,0.000,100.000
906.451,0.000,100.000
906.896,0.000,100.000
907.342,0.000,100.000
907.787,0.000,100.000
908.232,0.000,100.000
908.678,0.000,100.000
909.123,0.000,100.000
909.569,0.000,100.000
910.014,0.000,100.000
910.460,0.001,99.721
910.906,0.000,100.000
911.351,0.000,100.000
911.797,0.000,100.000
912.242,0.000,100.000
912.688,0.000,100.000
913.133,0.000,100.000
913.579,0.000,100.000
914.025,0.000,100.000
914.470,0.000,100.000
914.916,0.000,100.000
915.362,0.000,100.000
915.807,0.000,100.000
916.253,0.000,100.000
916.699,0.000,100.000
917.145,0.000,100.000
917.590,0.000,100.000
918.036,0.000,100.000
918.482,0.000,100.000
918.928,0.000,100.000
919.373,0.003,99.385
919.819,0.006,98.533
920.265,0.000,100.000
920.711,0.000,100.000
921.157,0.000,100.000
921.603,1.196E-4,99.972
922.049,0.000,100.000
922.495,0.000,100.000
922.940,0.000,100.000
923.386,0.000,100.000
923.832,0.000,100.000
924.278,0.000,100.000
924.724,0.000,100.000
925.170,0.000,100.000
925.616,0.000,100.000
926.062,0.000,100.000
926.508,0.000,100.000
926.954,0.000,100.000
927.400,0.000,100.000
927.846,0.000,100.000
928.293,0.000,100.000
928.739,0.000,100.000
929.185,0.000,100.000
929.631,0.000,100.000
930.077,0.000,100.000
930.523,0.000,100.000
930.969,0.000,100.000
931.415,0.000,100.000
931.862,0.000,100.000
932.308,0.000,100.000
932.754,0.000,100.000
933.200,0.000,100.000
933.647,0.000,100.000
934.093,0.002,99.519
934.539,0.000,100.000
934.985,0.000,100.000
935.432,0.000,100.000
935.878,0.000,100.000
936.324,0.000,100.000
936.771,0.000,100.000
937.217,0.000,100.000
937.663,0.000,100.000
938.110,0.000,100.000
938.556,0.000,100.000
939.002,0.000,100.000
939.449,0.000,100.000
939.895,0.000,100.000
940.342,0.000,100.000
940.788,0.000,100.000
941.235,0.000,100.000
941.681,0.000,100.000
942.128,0.000,100.000
942.574,0.000,100.000
943.021,0.000,100.000
943.467,0.000,100.000
943.914,0.000,100.000
944.360,0.000,100.000
944.807,0.000,100.000
945.253,0.000,100.000
945.700,0.000,100.000
946.147,0.000,100.000
946.593,0.000,100.000
947.040,0.000,100.000
947.486,0.000,100.000
947.933,0.000,100.000
948.380,0.000,100.000
948.826,0.000,100.000
949.273,0.000,100.000
949.720,0.000,100.000
950.167,0.000,100.000
950.613,0.000,100.000
951.060,0.000,100.000
951.507,0.000,100.000
951.954,0.000,100.000
952.400,0.000,100.000
952.847,0.000,100.000
953.294,0.000,100.000
953.741,0.000,100.000
954.188,0.000,100.000
954.634,0.000,100.000
955.081,0.000,100.000
955.528,0.000,100.000
955.975,0.000,100.000
956.422,6.147E-4,99.859
956.869,0.000,100.000
957.316,0.000,100.000
957.763,0.000,100.000
958.210,0.000,100.000
958.656,0.000,100.000
959.103,0.000,100.000
959.550,0.000,100.000
959.997,0.000,100.000
960.444,0.000,100.000
960.891,0.000,100.000
961.338,0.000,100.000
961.785,0.000,100.000
962.233,0.000,100.000
962.680,0.000,100.000
963.127,0.000,100.000
963.574,0.000,100.000
964.021,0.000,100.000
964.468,0.000,100.000
964.915,0.000,100.000
965.362,0.000,100.000
965.809,0.000,100.000
966.256,0.000,100.000
966.704,0.000,100.000
967.151,0.000,100.000
967.598,0.000,100.000
968.045,0.000,100.000
968.492,0.000,100.000
968.940,0.000,100.000
969.387,0.000,100.000
969.834,0.000,100.000
970.281,8.802E-4,99.798
970.729,0.000,100.000
971.176,0.000,100.000
971.623,0.000,100.000
972.070,0.000,100.000
972.518,0.000,100.000
972.965,0.000,100.000
973.412,0.000,100.000
973.860,0.000,100.000
974.307,0.000,100.000
974.755,0.000,100.000
975.202,0.000,100.000
975.649,0.000,100.000
976.097,0.000,100.000
976.544,0.000,100.000
976.992,0.000,100.000
977.439,0.000,100.000
977.886,0.000,100.000
978.334,0.000,100.000
978.781,0.000,100.000
979.229,0.003,99.290
979.676,0.000,100.000
980.124,0.000,100.000
980.571,0.000,100.000
981.019,0.000,100.000
981.466,0.000,100.000
981.914,0.000,100.000
982.362,0.000,100.000
982.809,0.000,100.000
983.257,0.000,100.000
983.704,0.000,100.000
984.152,0.000,100.000
984.600,0.000,100.000
985.047,0.000,100.000
985.495,0.000,100.000
985.942,0.000,100.000
986.390,0.000,100.000
986.838,0.000,100.000
987.285,0.000,100.000
987.733,0.000,100.000
988.181,0.000,100.000
988.629,0.008,98.123
989.076,0.000,100.000
989.524,0.000,100.000
989.972,0.000,100.000
990.420,0.000,100.000
990.867,0.000,100.000
991.315,0.000,100.000
991.763,0.000,100.000
992.211,0.000,100.000
992.658,0.004,98.972
993.106,0.000,100.000
993.554,0.000,100.000
994.002,0.000,100.000
994.450,0.000,100.000
994.898,0.000,100.000
995.346,0.000,100.000
995.793,0.000,100.000
996.241,0.000,100.000
996.689,0.000,100.000
997.137,0.000,100.000
997.585,0.000,100.000
998.033,0.000,100.000
998.481,0.000,100.000
998.929,0.000,100.000
999.377,0.000,100.000
999.825,0.000,100.000
1000.273,0.000,100.000
1000.721,0.000,100.000
1001.169,1.621E-4,99.963
1001.617,0.000,100.000
1002.065,0.000,100.000
1002.513,0.000,100.000
1002.961,0.000,100.000
1003.409,0.000,100.000
1003.857,0.000,100.000
1004.305,0.000,100.000
1004.753,0.000,100.000
1005.201,0.000,100.000
1005.649,0.008,98.123
1006.098,0.000,100.000
1006.546,0.000,100.000
1006.994,0.000,100.000
1007.442,0.000,100.000
1007.890,0.000,100.000
1008.338,0.000,100.000
1008.786,0.000,100.000
1009.235,0.000,100.000
1009.683,0.000,100.000
1010.131,0.000,100.000
1010.579,0.000,100.000
1011.027,0.000,100.000
1011.476,0.000,100.000
1011.924,0.000,100.000
1012.372,0.000,100.000
1012.820,0.000,100.000
1013.269,0.000,100.000
1013.717,0.007,98.500
1014.165,0.000,100.000
1014.614,0.000,100.000
1015.062,0.000,100.000
1015.510,0.000,100.000
1015.959,0.000,100.000
1016.407,0.000,100.000
1016.855,0.000,100.000
1017.304,0.000,100.000
1017.752,0.000,100.000
1018.200,0.000,100.000
1018.649,0.000,100.000
1019.097,0.000,100.000
1019.546,0.000,100.000
1019.994,0.000,100.000
1020.442,0.019,95.778
1020.891,0.000,100.000
1021.339,0.000,100.000
1021.788,0.000,100.000
1022.236,0.000,100.000
1022.685,0.000,100.000
1023.133,0.000,100.000
1023.582,0.000,100.000
1024.030,0.000,100.000
1024.479,0.000,100.000
1024.927,0.000,100.000
1025.376,0.000,100.000
1025.824,0.000,100.000
1026.273,0.053,88.444
1026.721,0.000,100.000
1027.170,0.000,100.000
1027.618,0.000,100.000
1028.067,0.000,100.000
1028.516,0.000,100.000
1028.964,0.000,100.000
1029.413,0.000,100.000
1029.861,0.000,100.000
1030.310,0.000,100.000
1030.759,0.000,100.000
1031.207,0.022,94.960
1031.656,0.000,100.000
1032.105,0.000,100.000
1032.553,0.000,100.000
1033.002,0.000,100.000
1033.451,0.000,100.000
1033.899,0.000,100.000
1034.348,0.000,100.000
1034.797,0.000,100.000
1035.245,0.000,100.000
1035.694,0.000,100.000
1036.143,0.000,100.000
1036.592,0.002,99.593
1037.040,0.000,100.000
1037.489,0.012,97.296
1037.938,0.000,100.000
1038.387,0.000,100.000
1038.836,0.000,100.000
1039.284,0.000,100.000
1039.733,0.000,100.000
1040.182,0.003,99.354
1040.631,0.000,100.000
1041.080,0.014,96.818
1041.528,0.000,100.000
1041.977,0.000,100.000
1042.426,0.000,100.000
1042.875,0.000,100.000
1043.324,0.000,100.000
1043.773,0.000,100.000
1044.222,0.000,100.000
1044.671,0.000,100.000
1045.119,0.000,100.000
