Wavelength (nm),Absorbance Solution #14,Transmittance Solution #14,,Untitled.sp,,,Solution #14,
174.415,0.197,63.553,,2026-02-25 19:57:23,,Analysis Wavelength,,
174.805,0.100,79.429,,Analyze Solution,,Integration Time,10 ms,
175.195,0.052,88.625,,Absorbance/Transmittance,,Number of Scans to Average,1,
175.586,0.024,94.633,,,,Smoothing,0,
175.976,0.268,53.962
176.367,0.128,74.395
176.758,0.161,68.974
177.148,0.112,77.265
177.539,0.202,62.875
177.930,0.000,100.000
178.321,0.212,61.444
178.712,0.134,73.409
179.102,0.325,47.289
179.493,0.085,82.187
179.884,0.121,75.750
180.276,0.052,88.625
180.667,0.186,65.147
181.058,0.228,59.088
181.449,0.147,71.206
181.840,0.057,87.767
182.232,0.159,69.312
182.623,0.032,92.917
183.014,0.085,82.187
183.406,0.121,75.750
183.797,0.062,86.786
184.189,0.067,85.654
184.581,0.057,87.767
184.972,0.147,71.206
185.364,0.159,69.312
185.756,0.121,75.750
186.147,0.220,60.300
186.539,0.000,100.000
186.931,0.067,85.654
187.323,0.000,100.000
187.715,0.092,80.900
188.107,0.131,74.033
188.499,0.212,61.444
188.891,0.092,80.900
189.284,0.121,75.750
189.676,0.254,55.722
190.068,0.278,52.711
190.460,0.121,75.750
190.853,0.052,88.625
191.245,0.137,72.889
191.638,0.079,83.324
192.030,0.258,55.150
192.423,0.022,95.062
192.816,0.202,62.875
193.208,0.112,77.265
193.601,0.354,44.278
193.994,0.000,100.000
194.387,0.105,78.611
194.779,0.100,79.429
195.172,0.184,65.450
195.565,0.079,83.324
195.958,0.105,78.611
196.351,0.121,75.750
196.744,0.301,50.000
197.138,0.184,65.450
197.531,0.161,68.974
197.924,0.173,67.167
198.317,0.045,90.056
198.711,0.062,86.786
199.104,0.100,79.429
199.498,0.173,67.167
199.891,0.275,53.029
200.285,0.202,62.875
200.678,0.173,67.167
201.072,0.121,75.750
201.465,0.131,74.033
201.859,0.197,63.553
202.253,0.121,75.750
202.647,0.100,79.429
203.041,0.069,85.237
203.435,0.202,62.875
203.829,0.151,70.600
204.223,0.513,30.688
204.617,0.112,77.265
205.011,0.087,81.881
205.405,0.354,44.278
205.799,0.186,65.147
206.193,0.262,54.682
206.588,0.388,40.912
206.982,0.323,47.548
207.376,0.173,67.167
207.771,0.128,74.395
208.165,0.105,78.611
208.560,0.254,55.722
208.955,0.246,56.717
209.349,0.236,58.132
209.744,0.301,50.000
210.139,0.283,52.060
210.533,0.301,50.000
210.928,0.323,47.548
211.323,0.262,54.682
211.718,0.401,39.700
212.113,0.236,58.132
212.508,0.541,28.794
212.903,0.232,58.583
213.298,0.301,50.000
213.693,0.262,54.682
214.088,0.265,54.292
214.484,0.409,38.964
214.879,0.334,46.321
215.274,0.484,32.833
215.670,0.317,48.224
216.065,0.350,44.672
216.461,0.365,43.133
216.856,0.458,34.853
217.252,0.554,27.929
217.647,0.719,19.100
218.043,0.548,28.316
218.439,0.473,33.614
218.835,0.517,30.381
219.230,0.749,17.813
219.626,0.744,18.034
220.022,0.703,19.810
220.418,0.888,12.956
220.814,0.712,19.422
221.210,0.893,12.806
221.606,0.938,11.538
222.002,0.984,10.385
222.399,0.811,15.465
222.795,1.104,7.864
223.191,1.072,8.468
223.587,1.161,6.908
223.984,1.100,7.950
224.380,1.021,9.536
224.777,1.012,9.736
225.173,1.117,7.637
225.570,1.241,5.742
225.966,1.014,9.678
226.363,1.108,7.799
226.760,1.097,7.996
227.156,1.161,6.908
227.553,1.299,5.019
227.950,1.270,5.367
228.347,1.137,7.293
228.744,1.223,5.991
229.141,1.270,5.367
229.538,1.434,3.679
229.935,1.247,5.660
230.332,1.289,5.145
230.729,1.178,6.632
231.127,1.669,2.141
231.524,1.273,5.334
231.921,1.386,4.109
232.318,1.325,4.728
232.716,1.435,3.674
233.113,1.579,2.638
233.511,1.588,2.584
233.908,1.256,5.543
234.306,1.365,4.315
234.704,1.399,3.988
235.101,1.505,3.124
235.499,1.671,2.135
235.897,1.363,4.338
236.294,1.355,4.420
236.692,1.366,4.308
237.090,1.409,3.901
237.488,1.492,3.218
237.886,1.622,2.387
238.284,1.413,3.861
238.682,1.418,3.821
239.080,1.722,1.896
239.479,1.429,3.725
239.877,1.533,2.930
240.275,1.736,1.835
240.673,1.419,3.809
241.072,1.616,2.420
241.470,1.381,4.163
241.869,1.506,3.117
242.267,1.419,3.809
242.666,1.626,2.367
243.064,1.787,1.632
243.463,1.879,1.322
243.862,1.535,2.919
244.260,1.474,3.355
244.659,1.530,2.949
245.058,2.111,0.774
245.457,1.567,2.711
245.856,1.456,3.500
246.255,1.393,4.041
246.654,1.563,2.737
247.053,1.755,1.759
247.452,1.737,1.833
247.851,1.830,1.481
248.250,1.445,3.586
248.649,1.420,3.799
249.049,1.548,2.833
249.448,1.520,3.020
249.847,1.412,3.871
250.247,1.528,2.964
250.646,1.536,2.910
251.046,1.723,1.892
251.445,1.434,3.680
251.845,1.730,1.862
252.245,1.699,2.001
252.644,2.270,0.537
253.044,1.864,1.369
253.444,1.889,1.291
253.844,1.544,2.860
254.243,1.724,1.890
254.643,1.528,2.967
255.043,1.466,3.416
255.443,1.811,1.544
255.843,1.662,2.179
256.243,1.616,2.424
256.643,1.800,1.585
257.044,1.788,1.629
257.444,1.879,1.322
257.844,1.765,1.719
258.244,2.234,0.583
258.645,1.827,1.489
259.045,1.854,1.398
259.446,1.833,1.469
259.846,1.625,2.374
260.247,2.026,0.942
260.647,1.799,1.588
261.048,1.962,1.091
261.449,1.878,1.325
261.849,1.949,1.124
262.250,1.662,2.179
262.651,1.714,1.933
263.052,1.886,1.301
263.453,1.977,1.054
263.854,1.744,1.803
264.255,1.852,1.407
264.656,1.778,1.666
265.057,2.095,0.803
265.458,2.093,0.808
265.859,1.785,1.640
266.260,1.643,2.276
266.661,1.738,1.829
267.063,1.794,1.609
267.464,1.907,1.238
267.865,1.903,1.249
268.267,1.673,2.125
268.668,1.723,1.891
269.070,1.872,1.343
269.471,1.810,1.549
269.873,1.810,1.549
270.275,1.947,1.130
270.676,1.645,2.266
271.078,1.646,2.258
271.480,1.701,1.992
271.882,1.781,1.655
272.284,1.643,2.274
272.686,1.949,1.124
273.088,1.709,1.955
273.490,1.960,1.097
273.892,1.694,2.021
274.294,1.568,2.704
274.696,1.723,1.891
275.098,1.799,1.590
275.500,1.717,1.920
275.902,1.777,1.669
276.305,1.576,2.652
276.707,1.868,1.356
277.110,1.744,1.804
277.512,2.023,0.948
277.915,2.127,0.747
278.317,1.752,1.770
278.720,1.551,2.814
279.122,1.863,1.371
279.525,1.888,1.293
279.928,1.911,1.228
280.330,2.174,0.670
280.733,1.639,2.296
281.136,1.830,1.481
281.539,1.856,1.392
281.942,1.965,1.083
282.345,1.741,1.817
282.748,1.910,1.232
283.151,1.931,1.173
283.554,1.991,1.020
283.957,1.894,1.275
284.360,1.858,1.386
284.764,1.849,1.417
285.167,1.858,1.386
285.570,2.129,0.742
285.974,1.744,1.803
286.377,1.725,1.884
286.780,1.753,1.765
287.184,1.727,1.875
287.587,1.679,2.096
287.991,1.766,1.714
288.395,1.690,2.042
288.798,1.789,1.626
289.202,1.865,1.365
289.606,1.671,2.134
290.010,1.569,2.698
290.413,1.597,2.531
290.817,1.480,3.313
291.221,1.689,2.047
291.625,1.545,2.854
292.029,1.517,3.038
292.433,1.484,3.281
292.837,1.535,2.918
293.242,1.448,3.568
293.646,1.533,2.932
294.050,1.446,3.581
294.454,1.402,3.964
294.859,1.396,4.015
295.263,1.415,3.842
295.667,1.420,3.804
296.072,1.300,5.015
296.476,1.323,4.755
296.881,1.376,4.207
297.285,1.360,4.362
297.690,1.330,4.674
298.095,1.324,4.747
298.499,1.304,4.963
298.904,1.336,4.615
299.309,1.326,4.717
299.714,1.303,4.972
300.119,1.310,4.895
300.524,1.358,4.382
300.929,1.307,4.929
301.334,1.327,4.714
301.739,1.253,5.585
302.144,1.301,5.004
302.549,1.255,5.553
302.954,1.379,4.178
303.359,1.279,5.263
303.764,1.277,5.280
304.170,1.280,5.248
304.575,1.274,5.325
304.981,1.263,5.459
305.386,1.279,5.258
305.791,1.236,5.804
306.197,1.208,6.201
306.603,1.227,5.933
307.008,1.260,5.495
307.414,1.256,5.550
307.819,1.300,5.011
308.225,1.236,5.807
308.631,1.242,5.724
309.037,1.245,5.683
309.443,1.316,4.832
309.849,1.254,5.576
310.254,1.213,6.121
310.660,1.233,5.849
311.066,1.189,6.466
311.473,1.182,6.576
311.879,1.179,6.617
312.285,1.204,6.255
312.691,1.189,6.464
313.097,1.205,6.233
313.504,1.165,6.843
313.910,1.183,6.555
314.316,1.154,7.012
314.723,1.124,7.516
315.129,1.144,7.171
315.536,1.116,7.663
315.942,1.151,7.057
316.349,1.089,8.150
316.755,1.102,7.912
317.162,1.089,8.147
317.569,1.078,8.359
317.975,1.049,8.926
318.382,1.059,8.726
318.789,1.016,9.632
319.196,1.061,8.686
319.603,1.009,9.806
320.010,1.001,9.979
320.417,1.004,9.910
320.824,0.954,11.112
321.231,0.957,11.048
321.638,0.979,10.501
322.045,0.921,12.008
322.452,0.934,11.647
322.860,0.909,12.323
323.267,0.915,12.170
323.674,0.865,13.656
324.082,0.892,12.820
324.489,0.876,13.305
324.896,0.859,13.847
325.304,0.834,14.661
325.711,0.828,14.849
326.119,0.827,14.884
326.527,0.827,14.906
326.934,0.819,15.170
327.342,0.822,15.063
327.750,0.796,15.986
328.158,0.799,15.873
328.565,0.802,15.780
328.973,0.788,16.278
329.381,0.805,15.667
329.789,0.793,16.094
330.197,0.820,15.143
330.605,0.807,15.587
331.013,0.812,15.423
331.421,0.787,16.327
331.830,0.812,15.416
332.238,0.806,15.645
332.646,0.824,14.985
333.054,0.806,15.645
333.463,0.821,15.100
333.871,0.836,14.598
334.279,0.855,13.971
334.688,0.821,15.108
335.096,0.826,14.916
335.505,0.830,14.794
335.913,0.879,13.214
336.322,0.866,13.630
336.731,0.862,13.743
337.139,0.864,13.687
337.548,0.903,12.504
337.957,0.899,12.628
338.366,0.902,12.525
338.775,0.915,12.173
339.183,0.893,12.780
339.592,0.874,13.371
340.001,0.915,12.162
340.410,0.974,10.618
340.819,0.969,10.745
341.229,1.006,9.866
341.638,0.967,10.801
342.047,1.012,9.727
342.456,0.976,10.560
342.865,1.045,9.020
343.275,1.022,9.515
343.684,1.067,8.563
344.093,1.071,8.493
344.503,1.134,7.345
344.912,1.082,8.272
345.322,1.129,7.423
345.731,1.143,7.201
346.141,1.175,6.691
346.551,1.152,7.055
346.960,1.195,6.387
347.370,1.171,6.745
347.780,1.231,5.874
348.190,1.256,5.550
348.599,1.268,5.390
349.009,1.307,4.930
349.419,1.282,5.227
349.829,1.301,5.003
350.239,1.334,4.634
350.649,1.314,4.858
351.059,1.323,4.749
351.469,1.397,4.006
351.879,1.352,4.451
352.290,1.414,3.854
352.700,1.386,4.114
353.110,1.511,3.083
353.521,1.440,3.627
353.931,1.541,2.878
354.341,1.507,3.109
354.752,1.515,3.054
355.162,1.521,3.013
355.573,1.502,3.150
355.983,1.498,3.177
356.394,1.609,2.462
356.805,1.606,2.475
357.215,1.565,2.723
357.626,1.592,2.558
358.037,1.676,2.108
358.447,1.767,1.711
358.858,1.827,1.491
359.269,1.830,1.480
359.680,1.785,1.640
360.091,1.758,1.745
360.502,1.918,1.207
360.913,1.756,1.753
361.324,1.789,1.625
361.735,1.808,1.555
362.146,1.726,1.879
362.558,1.761,1.734
362.969,1.915,1.217
363.380,1.824,1.500
363.791,1.893,1.280
364.203,2.206,0.622
364.614,1.848,1.417
365.026,1.881,1.315
365.437,1.893,1.280
365.849,2.041,0.910
366.260,1.769,1.703
366.672,1.966,1.081
367.083,1.863,1.372
367.495,1.859,1.383
367.907,1.795,1.605
368.319,2.014,0.969
368.730,2.144,0.718
369.142,2.306,0.494
369.554,1.932,1.170
369.966,1.872,1.341
370.378,1.901,1.256
370.790,2.096,0.802
371.202,2.080,0.831
371.614,1.936,1.160
372.026,1.818,1.521
372.438,1.620,2.398
372.850,1.985,1.034
373.263,1.904,1.247
373.675,1.979,1.049
374.087,1.831,1.477
374.500,2.308,0.493
374.912,2.021,0.952
375.324,2.083,0.827
375.737,1.949,1.125
376.149,2.013,0.971
376.562,1.950,1.121
376.975,2.116,0.765
377.387,2.051,0.888
377.800,1.916,1.214
378.212,1.772,1.690
378.625,1.809,1.552
379.038,1.896,1.271
379.451,2.062,0.866
379.864,2.075,0.841
380.277,1.869,1.352
380.689,1.995,1.012
381.102,2.156,0.698
381.515,2.272,0.535
381.928,1.886,1.301
382.342,1.932,1.169
382.755,1.893,1.280
383.168,1.966,1.083
383.581,1.794,1.607
383.994,2.137,0.729
384.408,1.949,1.125
384.821,1.946,1.133
385.234,1.764,1.724
385.648,2.342,0.455
386.061,2.259,0.551
386.475,2.007,0.984
386.888,1.852,1.406
387.302,2.396,0.402
387.715,2.006,0.987
388.129,2.051,0.888
388.542,1.867,1.357
388.956,2.007,0.984
389.370,2.001,0.998
389.784,2.105,0.786
390.198,2.856,0.139
390.611,1.974,1.062
391.025,2.526,0.298
391.439,2.426,0.375
391.853,2.314,0.486
392.267,2.546,0.285
392.681,2.284,0.520
393.095,2.004,0.990
393.509,2.135,0.733
393.924,1.948,1.128
394.338,2.063,0.865
394.752,2.140,0.725
395.166,2.552,0.280
395.581,2.123,0.753
395.995,3.000,0.100
396.409,2.436,0.366
396.824,2.275,0.531
397.238,2.057,0.877
397.653,3.000,0.100
398.067,2.572,0.268
398.482,2.265,0.543
398.897,2.069,0.852
399.311,2.331,0.467
399.726,2.331,0.467
400.141,2.327,0.471
400.555,2.439,0.364
400.970,1.872,1.344
401.385,2.453,0.353
401.800,2.917,0.121
402.215,3.000,0.100
402.630,2.150,0.707
403.045,2.492,0.322
403.460,2.139,0.726
403.875,2.627,0.236
404.290,2.320,0.479
404.705,2.381,0.416
405.120,3.000,0.100
405.536,2.183,0.656
405.951,2.078,0.835
406.366,2.280,0.525
406.782,2.546,0.285
407.197,2.469,0.339
407.612,2.141,0.723
408.028,2.609,0.246
408.443,1.955,1.109
408.859,3.000,0.100
409.274,2.183,0.656
409.690,2.360,0.436
410.106,2.363,0.434
410.521,2.917,0.121
410.937,2.220,0.602
411.353,3.000,0.100
411.769,2.084,0.824
412.184,2.609,0.246
412.600,2.202,0.628
413.016,2.246,0.568
413.432,2.485,0.328
413.848,2.307,0.494
414.264,2.298,0.504
414.680,2.218,0.605
415.096,2.103,0.789
415.512,2.269,0.538
415.928,2.269,0.538
416.345,2.002,0.995
416.761,1.812,1.542
417.177,2.385,0.412
417.593,2.830,0.148
418.010,1.913,1.221
418.426,2.021,0.952
418.843,2.060,0.871
419.259,2.500,0.316
419.676,2.206,0.622
420.092,2.475,0.335
420.509,2.351,0.446
420.925,3.000,0.100
421.342,2.570,0.269
421.759,3.000,0.100
422.175,2.057,0.877
422.592,2.843,0.144
423.009,2.216,0.608
423.426,2.227,0.593
423.843,2.460,0.347
424.259,1.940,1.149
424.676,1.913,1.222
425.093,2.040,0.913
425.510,2.088,0.816
425.927,1.989,1.027
426.345,2.243,0.572
426.762,2.236,0.581
427.179,1.783,1.648
427.596,2.067,0.858
428.013,2.741,0.182
428.431,2.078,0.835
428.848,2.168,0.680
429.265,2.369,0.428
429.683,2.086,0.821
430.100,2.164,0.685
430.517,2.178,0.663
430.935,2.252,0.560
431.352,2.718,0.191
431.770,2.009,0.980
432.188,2.344,0.453
432.605,1.973,1.063
433.023,2.176,0.667
433.441,1.839,1.448
433.858,2.376,0.420
434.276,2.112,0.773
434.694,1.963,1.088
435.112,1.981,1.045
435.530,1.974,1.062
435.948,1.836,1.458
436.366,1.924,1.192
436.784,2.107,0.781
437.202,1.896,1.270
437.620,2.350,0.447
438.038,2.084,0.825
438.456,2.939,0.115
438.874,2.187,0.650
439.292,1.896,1.270
439.711,1.951,1.120
440.129,2.142,0.722
440.547,1.795,1.601
440.965,2.083,0.826
441.384,2.158,0.695
441.802,2.009,0.980
442.221,2.030,0.933
442.639,2.206,0.622
443.058,2.004,0.992
443.476,1.917,1.211
443.895,1.993,1.016
444.314,2.167,0.681
444.732,2.071,0.849
445.151,1.931,1.171
445.570,2.067,0.856
445.989,2.265,0.543
446.407,2.636,0.231
446.826,2.040,0.911
447.245,1.890,1.288
447.664,1.944,1.137
448.083,2.343,0.453
448.502,2.205,0.624
448.921,2.213,0.613
449.340,1.766,1.713
449.759,1.846,1.427
450.178,2.073,0.845
450.598,1.967,1.080
451.017,1.834,1.464
451.436,2.290,0.512
451.855,2.243,0.571
452.275,2.003,0.993
452.694,1.753,1.767
453.113,2.068,0.854
453.533,1.983,1.041
453.952,2.633,0.233
454.372,1.848,1.421
454.791,2.084,0.823
455.211,1.863,1.372
455.630,2.027,0.939
456.050,1.855,1.396
456.470,2.012,0.973
456.889,1.893,1.279
457.309,1.827,1.488
457.729,2.012,0.973
458.149,1.939,1.150
458.569,1.761,1.736
458.989,1.876,1.332
459.408,2.177,0.665
459.828,2.054,0.883
460.248,1.809,1.552
460.668,2.592,0.256
461.089,1.886,1.300
461.509,1.834,1.465
461.929,2.413,0.386
462.349,1.798,1.594
462.769,2.036,0.919
463.189,2.056,0.880
463.610,2.039,0.914
464.030,2.123,0.753
464.450,2.333,0.465
464.871,1.984,1.037
465.291,2.180,0.661
465.711,1.748,1.785
466.132,1.806,1.563
466.552,2.009,0.980
466.973,2.119,0.760
467.394,1.904,1.247
467.814,1.941,1.146
468.235,1.844,1.431
468.656,1.699,1.999
469.076,1.579,2.637
469.497,1.706,1.969
469.918,1.878,1.325
470.339,1.753,1.766
470.760,1.573,2.670
471.180,1.947,1.131
471.601,1.842,1.437
472.022,1.768,1.707
472.443,1.926,1.185
472.864,1.762,1.731
473.285,1.665,2.165
473.706,1.692,2.032
474.128,2.168,0.680
474.549,1.961,1.094
474.970,1.941,1.146
475.391,1.669,2.144
475.813,1.859,1.382
476.234,1.751,1.773
476.655,1.671,2.131
477.077,1.678,2.097
477.498,1.635,2.315
477.919,1.608,2.469
478.341,1.868,1.356
478.762,1.755,1.758
479.184,1.715,1.927
479.606,1.599,2.518
480.027,1.670,2.140
480.449,1.689,2.046
480.870,1.576,2.656
481.292,1.511,3.082
481.714,1.629,2.349
482.136,1.494,3.207
482.558,1.454,3.512
482.979,1.555,2.785
483.401,1.577,2.647
483.823,1.641,2.285
484.245,1.639,2.298
484.667,1.573,2.676
485.089,1.433,3.694
485.511,1.299,5.026
485.933,1.213,6.130
486.355,1.290,5.129
486.778,1.225,5.961
487.200,1.199,6.323
487.622,1.157,6.973
488.044,1.193,6.409
488.467,1.124,7.522
488.889,1.101,7.932
489.311,1.062,8.666
489.734,1.061,8.683
490.156,1.037,9.176
490.579,0.992,10.187
491.001,1.013,9.700
491.424,0.950,11.224
491.846,0.921,11.995
492.269,0.945,11.351
492.691,0.903,12.500
493.114,0.855,13.960
493.537,0.866,13.623
493.959,0.863,13.721
494.382,0.852,14.051
494.805,0.793,16.090
495.228,0.829,14.813
495.651,0.787,16.319
496.074,0.763,17.265
496.497,0.748,17.853
496.919,0.773,16.854
497.342,0.751,17.760
497.766,0.728,18.688
498.189,0.691,20.348
498.612,0.700,19.941
499.035,0.655,22.153
499.458,0.699,19.996
499.881,0.668,21.462
500.304,0.672,21.295
500.728,0.678,20.999
501.151,0.653,22.237
501.574,0.660,21.880
501.998,0.636,23.107
502.421,0.630,23.430
502.844,0.635,23.184
503.268,0.644,22.683
503.691,0.642,22.816
504.115,0.629,23.504
504.539,0.641,22.845
504.962,0.626,23.667
505.386,0.612,24.432
505.809,0.624,23.769
506.233,0.646,22.575
506.657,0.641,22.868
507.081,0.651,22.327
507.504,0.635,23.180
507.928,0.640,22.928
508.352,0.668,21.473
508.776,0.659,21.921
509.200,0.684,20.716
509.624,0.670,21.360
510.048,0.666,21.556
510.472,0.677,21.015
510.896,0.678,21.006
511.320,0.701,19.924
511.744,0.713,19.368
512.168,0.740,18.183
512.592,0.706,19.657
513.017,0.699,20.005
513.441,0.722,18.986
513.865,0.724,18.867
514.289,0.778,16.676
514.714,0.796,16.001
515.138,0.764,17.201
515.563,0.761,17.334
515.987,0.798,15.913
516.411,0.768,17.064
516.836,0.800,15.866
517.261,0.855,13.980
517.685,0.854,13.993
518.110,0.860,13.791
518.534,0.847,14.232
518.959,0.868,13.566
519.384,0.837,14.564
519.808,0.932,11.689
520.233,0.858,13.854
520.658,0.879,13.214
521.083,0.864,13.676
521.508,0.930,11.738
521.933,0.899,12.631
522.358,0.919,12.044
522.782,0.877,13.259
523.207,0.925,11.881
523.632,0.912,12.255
524.058,0.919,12.044
524.483,0.921,11.992
524.908,0.989,10.254
525.333,0.934,11.649
525.758,0.982,10.420
526.183,0.950,11.216
526.609,0.986,10.325
527.034,0.967,10.799
527.459,0.969,10.741
527.884,0.972,10.670
528.310,1.004,9.911
528.735,0.950,11.224
529.161,0.920,12.013
529.586,0.956,11.076
530.012,0.953,11.144
530.437,0.978,10.512
530.863,0.989,10.246
531.288,0.930,11.743
531.714,0.910,12.310
532.140,0.966,10.815
532.565,0.856,13.922
532.991,0.943,11.409
533.417,0.928,11.807
533.843,0.940,11.474
534.268,0.860,13.800
534.694,0.862,13.728
535.120,0.868,13.545
535.546,0.859,13.822
535.972,0.847,14.212
536.398,0.882,13.137
536.824,0.855,13.963
537.250,0.832,14.722
537.676,0.821,15.105
538.102,0.806,15.623
538.528,0.810,15.495
538.954,0.775,16.770
539.381,0.789,16.259
539.807,0.787,16.312
540.233,0.773,16.866
540.659,0.767,17.114
541.086,0.803,15.748
541.512,0.747,17.920
541.938,0.742,18.119
542.365,0.734,18.452
542.791,0.743,18.085
543.218,0.715,19.289
543.644,0.729,18.673
544.071,0.708,19.596
544.497,0.716,19.248
544.924,0.720,19.050
545.351,0.757,17.512
545.777,0.757,17.486
546.204,0.768,17.063
546.631,0.730,18.629
547.057,0.726,18.807
547.484,0.699,19.996
547.911,0.704,19.754
548.338,0.736,18.381
548.765,0.724,18.860
549.192,0.746,17.961
549.619,0.710,19.481
550.046,0.753,17.652
550.473,0.735,18.406
550.900,0.761,17.350
551.327,0.758,17.445
551.754,0.761,17.347
552.181,0.779,16.651
552.608,0.818,15.191
553.035,0.776,16.753
553.462,0.809,15.517
553.890,0.844,14.312
554.317,0.838,14.508
554.744,0.829,14.839
555.172,0.818,15.208
555.599,0.839,14.498
556.026,0.845,14.279
556.454,0.854,14.005
556.881,0.905,12.455
557.309,0.883,13.088
557.736,0.910,12.293
558.164,0.908,12.365
558.591,0.938,11.530
559.019,0.938,11.523
559.447,0.955,11.085
559.874,0.993,10.160
560.302,0.984,10.370
560.730,1.003,9.923
561.158,1.011,9.744
561.585,1.073,8.449
562.013,1.048,8.955
562.441,1.073,8.450
562.869,1.071,8.491
563.297,1.109,7.779
563.725,1.092,8.086
564.153,1.089,8.139
564.581,1.158,6.958
565.009,1.184,6.550
565.437,1.246,5.682
565.865,1.253,5.580
566.293,1.210,6.165
566.721,1.219,6.033
567.149,1.257,5.536
567.578,1.280,5.247
568.006,1.311,4.882
568.434,1.352,4.447
568.862,1.405,3.939
569.291,1.382,4.150
569.719,1.478,3.325
570.148,1.469,3.400
570.576,1.485,3.273
571.004,1.481,3.306
571.433,1.532,2.935
571.861,1.553,2.800
572.290,1.599,2.518
572.719,1.570,2.690
573.147,1.619,2.405
573.576,1.575,2.662
574.004,1.675,2.113
574.433,1.638,2.299
574.862,1.790,1.621
575.291,1.724,1.887
575.719,1.786,1.635
576.148,1.832,1.474
576.577,1.861,1.376
577.006,1.811,1.545
577.435,1.871,1.346
577.864,1.976,1.056
578.293,2.046,0.899
578.722,2.019,0.958
579.151,2.170,0.676
579.580,1.985,1.036
580.009,2.079,0.834
580.438,2.144,0.717
580.867,2.245,0.569
581.296,2.172,0.672
581.725,2.030,0.934
582.155,2.028,0.937
582.584,2.063,0.865
583.013,2.044,0.904
583.443,2.157,0.696
583.872,2.815,0.153
584.301,2.262,0.547
584.731,2.594,0.255
585.160,2.322,0.476
585.590,2.129,0.743
586.019,2.460,0.347
586.449,2.232,0.586
586.878,2.544,0.286
587.308,2.178,0.664
587.737,2.093,0.807
588.167,2.166,0.683
588.597,2.429,0.373
589.026,2.451,0.354
589.456,2.322,0.477
589.886,2.222,0.600
590.315,2.766,0.171
590.745,2.435,0.367
591.175,2.508,0.310
591.605,3.000,0.100
592.035,3.000,0.100
592.465,3.000,0.100
592.895,3.000,0.100
593.325,2.283,0.521
593.755,2.792,0.161
594.185,3.000,0.100
594.615,2.792,0.161
595.045,3.000,0.100
595.475,3.000,0.100
595.905,2.542,0.287
596.335,2.374,0.423
596.766,2.220,0.602
597.196,3.000,0.100
597.626,3.000,0.100
598.056,3.000,0.100
598.487,3.000,0.100
598.917,3.000,0.100
599.347,3.000,0.100
599.778,3.000,0.100
600.208,3.000,0.100
600.639,3.000,0.100
601.069,2.866,0.136
601.500,3.000,0.100
601.930,3.000,0.100
602.361,3.000,0.100
602.791,3.000,0.100
603.222,3.000,0.100
603.653,3.000,0.100
604.083,3.000,0.100
604.514,3.000,0.100
604.945,3.000,0.100
605.376,3.000,0.100
605.806,3.000,0.100
606.237,3.000,0.100
606.668,3.000,0.100
607.099,3.000,0.100
607.530,3.000,0.100
607.961,3.000,0.100
608.392,2.499,0.317
608.823,3.000,0.100
609.254,3.000,0.100
609.685,3.000,0.100
610.116,3.000,0.100
610.547,3.000,0.100
610.978,3.000,0.100
611.409,3.000,0.100
611.841,3.000,0.100
612.272,3.000,0.100
612.703,3.000,0.100
613.134,3.000,0.100
613.566,3.000,0.100
613.997,3.000,0.100
614.428,3.000,0.100
614.860,2.780,0.166
615.291,2.396,0.402
615.723,3.000,0.100
616.154,3.000,0.100
616.586,3.000,0.100
617.017,3.000,0.100
617.449,2.485,0.327
617.880,3.000,0.100
618.312,2.085,0.822
618.744,3.000,0.100
619.175,3.000,0.100
619.607,2.576,0.266
620.039,2.421,0.380
620.470,2.301,0.500
620.902,3.000,0.100
621.334,3.000,0.100
621.766,2.751,0.178
622.198,2.696,0.202
622.630,2.351,0.446
623.062,2.876,0.133
623.493,2.787,0.163
623.925,2.720,0.191
624.357,2.876,0.133
624.789,3.000,0.100
625.221,2.375,0.422
625.654,2.368,0.429
626.086,3.000,0.100
626.518,3.000,0.100
626.950,2.482,0.330
627.382,2.877,0.133
627.814,2.647,0.226
628.247,2.466,0.342
628.679,2.337,0.461
629.111,1.918,1.207
629.544,2.260,0.549
629.976,2.792,0.161
630.408,2.212,0.614
630.841,2.303,0.497
631.273,2.636,0.231
631.706,2.417,0.383
632.138,2.353,0.443
632.571,2.263,0.545
633.003,2.245,0.569
633.436,2.362,0.435
633.868,2.050,0.892
634.301,2.261,0.548
634.733,2.280,0.525
635.166,2.196,0.637
635.599,2.346,0.451
636.032,2.227,0.593
636.464,2.405,0.394
636.897,2.176,0.667
637.330,2.252,0.560
637.763,2.186,0.652
638.196,2.127,0.746
638.629,2.046,0.899
639.061,1.913,1.222
639.494,2.122,0.755
639.927,1.870,1.349
640.360,2.498,0.318
640.793,3.000,0.100
641.226,2.445,0.359
641.659,1.973,1.064
642.093,2.021,0.952
642.526,1.961,1.094
642.959,2.342,0.455
643.392,2.036,0.920
643.825,2.094,0.806
644.258,2.030,0.934
644.692,2.036,0.920
645.125,2.099,0.796
645.558,2.459,0.348
645.992,2.025,0.945
646.425,1.859,1.382
646.858,1.826,1.494
647.292,2.023,0.949
647.725,2.225,0.596
648.159,2.059,0.873
648.592,1.996,1.009
649.026,1.983,1.040
649.459,1.950,1.122
649.893,1.918,1.207
650.326,2.002,0.994
650.760,1.721,1.900
651.194,2.463,0.344
651.627,1.871,1.345
652.061,2.001,0.999
652.495,1.810,1.550
652.929,1.739,1.823
653.362,1.973,1.065
653.796,1.956,1.108
654.230,2.263,0.545
654.664,2.076,0.839
655.098,1.827,1.490
655.532,1.900,1.258
655.966,2.023,0.948
656.400,1.703,1.982
656.834,1.605,2.485
657.268,1.640,2.291
657.702,1.509,3.100
658.136,1.441,3.624
658.570,1.440,3.630
659.004,1.381,4.161
659.438,1.314,4.849
659.872,1.277,5.280
660.306,1.258,5.516
660.741,1.216,6.078
661.175,1.140,7.251
661.609,1.086,8.209
662.043,1.091,8.111
662.478,1.078,8.350
662.912,1.014,9.693
663.347,0.994,10.145
663.781,0.976,10.561
664.215,0.967,10.778
664.650,0.934,11.652
665.084,0.858,13.867
665.519,0.826,14.918
665.953,0.808,15.572
666.388,0.754,17.606
666.822,0.740,18.193
667.257,0.708,19.603
667.692,0.678,21.001
668.126,0.661,21.803
668.561,0.646,22.615
668.996,0.607,24.726
669.430,0.589,25.777
669.865,0.564,27.269
670.300,0.559,27.606
670.735,0.528,29.640
671.170,0.494,32.052
671.604,0.463,34.401
672.039,0.469,33.974
672.474,0.442,36.107
672.909,0.454,35.174
673.344,0.429,37.207
673.779,0.399,39.884
674.214,0.396,40.178
674.649,0.372,42.455
675.084,0.368,42.845
675.519,0.342,45.482
675.954,0.344,45.295
676.390,0.339,45.862
676.825,0.305,49.495
677.260,0.294,50.810
677.695,0.298,50.364
678.130,0.289,51.402
678.566,0.277,52.818
679.001,0.257,55.340
679.436,0.254,55.761
679.871,0.245,56.943
680.307,0.243,57.133
680.742,0.223,59.818
681.178,0.211,61.524
681.613,0.205,62.431
682.048,0.209,61.741
682.484,0.207,62.128
682.919,0.201,63.009
683.355,0.182,65.758
683.791,0.180,66.097
684.226,0.178,66.377
684.662,0.156,69.775
685.097,0.159,69.293
685.533,0.157,69.622
685.969,0.150,70.838
686.404,0.144,71.762
686.840,0.132,73.860
687.276,0.131,73.980
687.712,0.131,73.994
688.147,0.129,74.228
688.583,0.120,75.779
689.019,0.120,75.778
689.455,0.111,77.432
689.891,0.116,76.592
690.327,0.121,75.669
690.763,0.107,78.183
691.199,0.108,77.918
691.635,0.118,76.177
692.071,0.101,79.189
692.507,0.089,81.463
692.943,0.086,81.984
693.379,0.089,81.503
693.815,0.100,79.524
694.251,0.089,81.381
694.687,0.092,80.879
695.123,0.082,82.773
695.560,0.088,81.629
695.996,0.084,82.410
696.432,0.085,82.310
696.868,0.069,85.341
697.305,0.076,83.944
697.741,0.068,85.580
698.177,0.066,85.987
698.614,0.065,86.039
699.050,0.073,84.564
699.487,0.071,84.922
699.923,0.066,85.812
700.360,0.065,86.104
700.796,0.067,85.736
701.233,0.065,86.175
701.669,0.063,86.526
702.106,0.054,88.358
702.542,0.063,86.464
702.979,0.061,86.932
703.415,0.060,87.053
703.852,0.055,88.146
704.289,0.058,87.506
704.726,0.060,87.171
705.162,0.059,87.325
705.599,0.064,86.219
706.036,0.058,87.467
706.473,0.050,89.165
706.909,0.049,89.289
707.346,0.050,89.045
707.783,0.052,88.683
708.220,0.050,89.121
708.657,0.053,88.601
709.094,0.058,87.446
709.531,0.057,87.710
709.968,0.049,89.295
710.405,0.047,89.688
710.842,0.049,89.371
711.279,0.051,88.958
711.716,0.058,87.425
712.153,0.049,89.301
712.590,0.050,89.227
713.027,0.041,90.947
713.465,0.039,91.327
713.902,0.038,91.626
714.339,0.040,91.272
714.776,0.046,90.035
715.214,0.034,92.535
715.651,0.042,90.733
716.088,0.032,92.996
716.525,0.039,91.352
716.963,0.045,90.118
717.400,0.043,90.572
717.838,0.043,90.496
718.275,0.035,92.334
718.713,0.038,91.673
719.150,0.037,91.769
719.587,0.043,90.550
720.025,0.036,92.035
720.463,0.034,92.442
720.900,0.032,92.847
721.338,0.027,93.895
721.775,0.033,92.706
722.213,0.039,91.440
722.651,0.042,90.832
723.088,0.042,90.883
723.526,0.031,93.113
723.964,0.032,92.878
724.401,0.037,91.838
724.839,0.036,91.976
725.277,0.026,94.193
725.715,0.036,92.112
726.153,0.028,93.720
726.591,0.037,91.866
727.028,0.032,92.895
727.466,0.036,92.075
727.904,0.033,92.688
728.342,0.031,93.075
728.780,0.026,94.137
729.218,0.036,92.136
729.656,0.039,91.500
730.094,0.029,93.623
730.532,0.027,93.892
730.970,0.023,94.773
731.409,0.025,94.389
731.847,0.029,93.612
732.285,0.027,94.020
732.723,0.019,95.639
733.161,0.023,94.809
733.599,0.022,95.115
734.038,0.016,96.297
734.476,0.023,94.857
734.914,0.029,93.560
735.353,0.026,94.214
735.791,0.028,93.652
736.229,0.022,95.040
736.668,0.019,95.618
737.106,0.023,94.935
737.544,0.029,93.566
737.983,0.025,94.394
738.421,0.025,94.435
738.860,0.019,95.827
739.298,0.022,95.024
739.737,0.022,95.017
740.175,0.021,95.332
740.614,0.029,93.571
741.053,0.030,93.329
741.491,0.027,93.865
741.930,0.025,94.407
742.369,0.025,94.384
742.807,0.022,95.039
743.246,0.019,95.693
743.685,0.027,94.030
744.123,0.022,95.105
744.562,0.026,94.229
745.001,0.017,96.095
745.440,0.022,94.987
745.879,0.026,94.272
746.317,0.019,95.612
746.756,0.025,94.366
747.195,0.020,95.606
747.634,0.030,93.263
748.073,0.021,95.320
748.512,0.021,95.194
748.951,0.029,93.616
749.390,0.020,95.596
749.829,0.018,96.037
750.268,0.021,95.275
750.707,0.019,95.794
751.146,0.026,94.091
751.585,0.026,94.237
752.025,0.028,93.663
752.464,0.026,94.259
752.903,0.024,94.576
753.342,0.017,96.166
753.781,0.023,94.815
754.221,0.017,96.063
754.660,0.013,97.101
755.099,0.014,96.908
755.538,0.022,95.124
755.978,0.018,95.877
756.417,0.018,95.929
756.857,0.019,95.616
757.296,0.016,96.386
757.735,0.013,96.986
758.175,0.013,97.068
758.614,0.015,96.521
759.054,0.011,97.533
759.493,0.013,96.989
759.933,0.012,97.372
760.372,0.018,95.846
760.812,0.016,96.414
761.251,0.023,94.943
761.691,0.020,95.459
762.131,0.020,95.454
762.570,0.019,95.631
763.010,0.020,95.565
763.450,0.019,95.718
763.889,0.020,95.571
764.329,0.014,96.781
764.769,0.014,96.767
765.209,0.026,94.185
765.648,0.009,97.967
766.088,0.022,95.132
766.528,0.013,97.025
766.968,0.021,95.182
767.408,0.022,94.982
767.848,0.020,95.484
768.288,0.025,94.510
768.728,0.010,97.644
769.168,0.024,94.623
769.608,0.010,97.645
770.048,0.009,97.898
770.488,0.007,98.457
770.928,0.012,97.282
771.368,0.014,96.825
771.808,0.015,96.649
772.248,0.009,97.943
772.688,0.023,94.777
773.128,0.015,96.618
773.568,0.014,96.935
774.008,0.024,94.728
774.449,0.020,95.564
774.889,0.013,97.055
775.329,0.018,95.900
775.769,0.018,95.873
776.210,0.020,95.566
776.650,0.025,94.443
777.090,0.022,95.152
777.531,0.017,96.190
777.971,0.010,97.809
778.411,0.015,96.584
778.852,0.026,94.200
779.292,0.019,95.676
779.733,0.023,94.797
780.173,0.017,96.246
780.614,0.014,96.887
781.054,0.008,98.104
781.495,0.008,98.199
781.935,0.010,97.744
782.376,0.013,97.121
782.816,0.017,96.216
783.257,0.012,97.163
783.698,0.017,96.079
784.138,0.016,96.491
784.579,0.016,96.491
785.020,0.016,96.448
785.460,0.018,95.891
785.901,0.016,96.424
786.342,0.013,96.948
786.783,0.011,97.603
787.223,0.007,98.292
787.664,0.018,95.935
788.105,0.010,97.761
788.546,0.020,95.496
788.987,0.018,95.990
789.428,0.016,96.423
789.869,0.018,96.031
790.310,0.014,96.822
790.751,0.019,95.712
791.192,0.018,96.013
791.632,0.024,94.525
792.073,0.021,95.327
792.515,0.013,97.107
792.956,0.006,98.706
793.397,0.004,99.188
793.838,0.014,96.799
794.279,0.022,95.011
794.720,0.017,96.051
795.161,0.015,96.652
795.602,0.013,97.026
796.043,0.018,96.022
796.485,0.017,96.243
796.926,0.020,95.563
797.367,0.013,96.943
797.808,0.019,95.826
798.250,0.021,95.289
798.691,0.008,98.184
799.132,0.026,94.143
799.574,0.013,97.048
800.015,0.018,95.882
800.456,0.015,96.581
800.898,0.019,95.696
801.339,0.013,97.070
801.781,0.020,95.560
802.222,0.014,96.915
802.664,0.010,97.778
803.105,0.012,97.348
803.547,0.014,96.731
803.988,0.008,98.177
804.430,0.017,96.181
804.871,0.010,97.749
805.313,0.011,97.576
805.754,0.014,96.857
806.196,0.020,95.554
806.638,0.018,95.855
807.079,0.014,96.846
807.521,0.006,98.534
807.963,0.013,97.124
808.404,0.009,97.881
808.846,0.017,96.205
809.288,0.013,97.063
809.730,0.011,97.431
810.171,0.003,99.336
810.613,0.011,97.490
811.055,0.020,95.590
811.497,0.019,95.772
811.939,0.017,96.114
812.381,0.006,98.642
812.823,0.015,96.600
813.265,0.008,98.258
813.706,0.012,97.252
814.148,0.010,97.657
814.590,0.010,97.652
815.032,0.013,97.086
815.474,0.014,96.803
815.916,0.007,98.338
816.359,0.012,97.287
816.801,0.011,97.459
817.243,0.014,96.803
817.685,0.019,95.672
818.127,0.014,96.932
818.569,0.016,96.436
819.011,0.005,98.928
819.453,0.012,97.380
819.896,0.015,96.527
820.338,0.012,97.316
820.780,0.020,95.422
821.222,0.019,95.689
821.665,0.010,97.633
822.107,0.018,95.842
822.549,0.017,96.239
822.992,0.007,98.307
823.434,0.005,98.964
823.876,0.009,97.919
824.319,0.015,96.629
824.761,0.014,96.823
825.203,0.006,98.564
825.646,0.013,97.011
826.088,0.009,97.932
826.531,0.014,96.876
826.973,0.028,93.674
827.416,0.011,97.475
827.858,0.020,95.546
828.301,0.006,98.686
828.744,0.008,98.224
829.186,0.023,94.804
829.629,0.010,97.759
830.071,0.012,97.192
830.514,0.016,96.420
830.957,0.009,97.890
831.399,0.010,97.752
831.842,0.007,98.398
832.285,0.005,98.846
832.727,0.018,96.000
833.170,0.018,96.007
833.613,0.013,96.978
834.056,0.006,98.583
834.498,0.013,97.093
834.941,0.011,97.474
835.384,0.014,96.925
835.827,0.009,97.916
836.270,0.015,96.620
836.713,0.005,98.786
837.156,0.026,94.162
837.599,0.012,97.263
838.042,0.016,96.384
838.484,0.015,96.666
838.927,0.010,97.666
839.370,0.017,96.093
839.813,0.009,97.999
840.256,0.021,95.221
840.700,0.016,96.410
841.143,0.013,97.140
841.586,0.012,97.330
842.029,0.015,96.531
842.472,0.008,98.177
842.915,0.014,96.825
843.358,0.017,96.165
843.801,0.021,95.191
844.244,0.017,96.086
844.688,0.016,96.350
845.131,0.012,97.290
845.574,0.016,96.462
846.017,0.024,94.550
846.461,0.024,94.633
846.904,0.009,98.030
847.347,0.009,97.842
847.791,0.015,96.589
848.234,0.005,98.816
848.677,0.023,94.773
849.121,0.010,97.781
849.564,0.023,94.737
850.007,0.009,97.919
850.451,0.015,96.703
850.894,0.010,97.739
851.338,0.005,98.767
851.781,0.011,97.458
852.225,0.001,99.722
852.668,0.003,99.264
853.112,0.011,97.396
853.555,0.018,95.936
853.999,0.015,96.569
854.442,0.019,95.662
854.886,0.009,97.909
855.330,0.006,98.651
855.773,0.014,96.818
856.217,0.014,96.907
856.660,0.014,96.903
857.104,0.011,97.561
857.548,0.008,98.116
857.992,0.009,97.923
858.435,0.015,96.540
858.879,0.007,98.370
859.323,0.022,95.146
859.767,0.010,97.652
860.210,0.015,96.595
860.654,0.007,98.338
861.098,0.013,97.041
861.542,0.021,95.311
861.986,0.012,97.177
862.430,0.016,96.454
862.873,0.011,97.566
863.317,0.012,97.308
863.761,0.013,97.002
864.205,0.013,97.081
864.649,0.014,96.770
865.093,0.016,96.449
865.537,0.007,98.388
865.981,0.013,97.048
866.425,0.011,97.596
866.869,0.010,97.719
867.313,0.010,97.702
867.757,0.004,99.159
868.201,0.012,97.299
868.645,0.015,96.669
869.090,0.008,98.087
869.534,0.008,98.072
869.978,0.006,98.669
870.422,1.921E-4,99.956
870.866,0.015,96.494
871.310,0.021,95.248
871.755,0.012,97.374
872.199,0.014,96.919
872.643,0.020,95.496
873.087,0.014,96.933
873.532,0.006,98.626
873.976,0.011,97.502
874.420,0.014,96.775
874.865,0.004,99.105
875.309,0.015,96.625
875.753,0.010,97.625
876.198,0.016,96.382
876.642,0.010,97.787
877.086,0.009,97.998
877.531,0.016,96.389
877.975,0.012,97.241
878.420,0.010,97.714
878.864,0.008,98.183
879.309,0.006,98.656
879.753,0.001,99.713
880.198,0.005,98.933
880.642,0.006,98.599
881.087,0.004,99.004
881.531,0.007,98.313
881.976,0.014,96.744
882.420,0.003,99.347
882.865,0.009,98.028
883.310,0.007,98.349
883.754,0.008,98.145
884.199,0.007,98.495
884.644,0.009,98.017
885.088,0.009,98.061
885.533,0.013,96.951
885.978,0.013,97.138
886.422,0.016,96.476
886.867,0.002,99.437
887.312,0.000,100.000
887.757,0.002,99.437
888.201,0.007,98.436
888.646,0.006,98.735
889.091,0.015,96.701
889.536,0.001,99.760
889.981,0.003,99.394
890.426,0.012,97.172
890.871,0.009,97.883
891.315,0.002,99.433
891.760,0.002,99.570
892.205,0.013,97.136
892.650,0.001,99.733
893.095,0.010,97.646
893.540,0.007,98.444
893.985,0.010,97.626
894.430,0.004,99.027
894.875,0.004,99.014
895.320,0.007,98.476
895.765,3.325E-4,99.923
896.210,0.000,100.000
896.655,0.004,99.134
897.100,0.002,99.495
897.546,0.006,98.588
897.991,0.008,98.236
898.436,0.009,98.049
898.881,0.005,98.916
899.326,8.062E-4,99.815
899.771,0.000,100.000
900.216,0.002,99.473
900.662,0.011,97.538
901.107,0.012,97.239
901.552,0.012,97.208
901.997,0.007,98.351
902.443,0.009,97.942
902.888,0.000,100.000
903.333,0.000,100.000
903.779,0.010,97.685
904.224,0.000,100.000
904.669,0.000,100.000
905.115,0.008,98.098
905.560,0.003,99.211
906.005,0.004,99.168
906.451,0.001,99.754
906.896,2.250E-4,99.948
907.342,0.003,99.350
907.787,0.010,97.815
908.232,0.000,100.000
908.678,0.000,100.000
909.123,0.003,99.317
909.569,0.011,97.515
910.014,0.009,97.962
910.460,0.007,98.337
910.906,0.006,98.695
911.351,0.000,100.000
911.797,0.000,100.000
912.242,0.000,100.000
912.688,5.165E-4,99.881
913.133,0.002,99.464
913.579,0.007,98.435
914.025,0.011,97.594
914.470,0.000,100.000
914.916,0.000,100.000
915.362,0.003,99.225
915.807,0.000,100.000
916.253,0.007,98.447
916.699,0.000,100.000
917.145,0.005,98.822
917.590,0.006,98.593
918.036,0.006,98.514
918.482,0.000,100.000
918.928,0.000,100.000
919.373,0.010,97.693
919.819,8.498E-4,99.805
920.265,0.000,100.000
920.711,0.000,100.000
921.157,0.000,100.000
921.603,0.000,100.000
922.049,0.000,100.000
922.495,0.000,100.000
922.940,0.001,99.739
923.386,0.000,100.000
923.832,0.005,98.853
924.278,0.000,100.000
924.724,0.002,99.467
925.170,0.007,98.310
925.616,0.016,96.282
926.062,0.000,100.000
926.508,0.000,100.000
926.954,0.002,99.435
927.400,4.597E-4,99.894
927.846,0.016,96.487
928.293,0.012,97.362
928.739,0.000,100.000
929.185,0.000,100.000
929.631,0.006,98.652
930.077,0.000,100.000
930.523,0.000,100.000
930.969,0.003,99.303
931.415,0.000,100.000
931.862,0.001,99.767
932.308,0.008,98.083
932.754,0.000,100.000
933.200,0.000,100.000
933.647,0.000,100.000
934.093,0.006,98.529
934.539,0.005,98.957
934.985,0.000,100.000
935.432,0.000,100.000
935.878,0.000,100.000
936.324,0.000,100.000
936.771,0.000,100.000
937.217,0.000,100.000
937.663,0.000,100.000
938.110,0.000,100.000
938.556,0.007,98.298
939.002,0.000,100.000
939.449,0.000,100.000
939.895,6.052E-4,99.861
940.342,0.000,100.000
940.788,0.000,100.000
941.235,0.000,100.000
941.681,0.005,98.953
942.128,0.000,100.000
942.574,0.000,100.000
943.021,0.000,100.000
943.467,0.000,100.000
943.914,0.000,100.000
944.360,0.000,100.000
944.807,0.000,100.000
945.253,0.000,100.000
945.700,0.000,100.000
946.147,0.000,100.000
946.593,1.422E-4,99.967
947.040,0.000,100.000
947.486,0.000,100.000
947.933,0.002,99.581
948.380,0.000,100.000
948.826,0.002,99.544
949.273,0.000,100.000
949.720,0.002,99.506
950.167,0.000,100.000
950.613,0.000,100.000
951.060,8.437E-4,99.806
951.507,9.670E-4,99.778
951.954,0.000,100.000
952.400,0.000,100.000
952.847,0.000,100.000
953.294,0.005,98.943
953.741,0.000,100.000
954.188,0.000,100.000
954.634,0.000,100.000
955.081,0.000,100.000
955.528,0.000,100.000
955.975,0.000,100.000
956.422,0.000,100.000
956.869,0.004,99.114
957.316,0.000,100.000
957.763,0.000,100.000
958.210,0.000,100.000
958.656,0.000,100.000
959.103,0.003,99.363
959.550,0.000,100.000
959.997,0.001,99.754
960.444,0.000,100.000
960.891,0.001,99.669
961.338,0.000,100.000
961.785,0.000,100.000
962.233,0.000,100.000
962.680,0.000,100.000
963.127,0.000,100.000
963.574,0.000,100.000
964.021,0.000,100.000
964.468,0.006,98.514
964.915,0.000,100.000
965.362,0.000,100.000
965.809,0.000,100.000
966.256,0.000,100.000
966.704,0.000,100.000
967.151,0.012,97.248
967.598,0.000,100.000
968.045,0.000,100.000
968.492,0.000,100.000
968.940,0.000,100.000
969.387,0.000,100.000
969.834,0.000,100.000
970.281,0.000,100.000
970.729,0.000,100.000
971.176,0.010,97.777
971.623,0.000,100.000
972.070,0.000,100.000
972.518,0.000,100.000
972.965,0.000,100.000
973.412,0.000,100.000
973.860,0.000,100.000
974.307,0.000,100.000
974.755,0.000,100.000
975.202,0.000,100.000
975.649,0.000,100.000
976.097,0.000,100.000
976.544,0.000,100.000
976.992,0.000,100.000
977.439,0.000,100.000
977.886,0.000,100.000
978.334,0.000,100.000
978.781,0.000,100.000
979.229,0.000,100.000
979.676,0.000,100.000
980.124,0.000,100.000
980.571,0.000,100.000
981.019,0.000,100.000
981.466,0.000,100.000
981.914,0.000,100.000
982.362,0.000,100.000
982.809,0.000,100.000
983.257,0.000,100.000
983.704,0.000,100.000
984.152,0.000,100.000
984.600,0.000,100.000
985.047,0.000,100.000
985.495,0.000,100.000
985.942,0.000,100.000
986.390,0.000,100.000
986.838,0.000,100.000
987.285,0.000,100.000
987.733,7.401E-4,99.830
988.181,0.000,100.000
988.629,0.000,100.000
989.076,0.000,100.000
989.524,0.000,100.000
989.972,0.000,100.000
990.420,0.000,100.000
990.867,0.000,100.000
991.315,0.000,100.000
991.763,0.000,100.000
992.211,0.000,100.000
992.658,0.004,98.972
993.106,0.000,100.000
993.554,0.000,100.000
994.002,0.000,100.000
994.450,0.000,100.000
994.898,0.000,100.000
995.346,0.000,100.000
995.793,0.000,100.000
996.241,0.000,100.000
996.689,0.000,100.000
997.137,0.000,100.000
997.585,0.000,100.000
998.033,0.000,100.000
998.481,0.000,100.000
998.929,0.000,100.000
999.377,0.000,100.000
999.825,0.000,100.000
1000.273,0.000,100.000
1000.721,0.000,100.000
1001.169,0.000,100.000
1001.617,0.000,100.000
1002.065,0.000,100.000
1002.513,0.000,100.000
1002.961,0.000,100.000
1003.409,0.000,100.000
1003.857,0.000,100.000
1004.305,0.000,100.000
1004.753,0.000,100.000
1005.201,0.000,100.000
1005.649,0.000,100.000
1006.098,0.000,100.000
1006.546,0.000,100.000
1006.994,0.000,100.000
1007.442,0.000,100.000
1007.890,0.000,100.000
1008.338,0.000,100.000
1008.786,0.000,100.000
1009.235,0.000,100.000
1009.683,0.000,100.000
1010.131,0.002,99.627
1010.579,0.000,100.000
1011.027,0.000,100.000
1011.476,0.000,100.000
1011.924,0.000,100.000
1012.372,0.000,100.000
1012.820,0.000,100.000
1013.269,0.000,100.000
1013.717,0.000,100.000
1014.165,0.000,100.000
1014.614,0.000,100.000
1015.062,0.000,100.000
1015.510,0.000,100.000
1015.959,0.000,100.000
1016.407,0.000,100.000
1016.855,0.000,100.000
1017.304,0.000,100.000
1017.752,0.000,100.000
1018.200,0.000,100.000
1018.649,0.000,100.000
1019.097,0.000,100.000
1019.546,0.004,99.048
1019.994,0.000,100.000
1020.442,0.029,93.489
1020.891,0.000,100.000
1021.339,0.000,100.000
1021.788,0.000,100.000
1022.236,0.000,100.000
1022.685,0.000,100.000
1023.133,0.000,100.000
1023.582,0.000,100.000
1024.030,0.000,100.000
1024.479,0.000,100.000
1024.927,0.000,100.000
1025.376,0.000,100.000
1025.824,0.000,100.000
1026.273,0.000,100.000
1026.721,0.000,100.000
1027.170,0.000,100.000
1027.618,0.000,100.000
1028.067,0.000,100.000
1028.516,0.000,100.000
1028.964,0.007,98.379
1029.413,0.006,98.557
1029.861,0.000,100.000
1030.310,0.000,100.000
1030.759,7.010E-4,99.839
1031.207,5.863E-4,99.865
1031.656,0.000,100.000
1032.105,0.000,100.000
1032.553,0.001,99.754
1033.002,0.000,100.000
1033.451,0.000,100.000
1033.899,0.000,100.000
1034.348,0.000,100.000
1034.797,0.000,100.000
1035.245,0.000,100.000
1035.694,0.000,100.000
1036.143,0.002,99.593
1036.592,0.000,100.000
1037.040,0.000,100.000
1037.489,0.031,93.092
1037.938,0.000,100.000
1038.387,0.000,100.000
1038.836,0.000,100.000
1039.284,0.000,100.000
1039.733,0.000,100.000
1040.182,0.000,100.000
1040.631,0.000,100.000
1041.080,0.000,100.000
1041.528,0.000,100.000
1041.977,0.000,100.000
1042.426,0.000,100.000
1042.875,0.000,100.000
1043.324,0.000,100.000
1043.773,0.000,100.000
1044.222,0.000,100.000
1044.671,0.000,100.000
1045.119,0.000,100.000
