Wavelength (nm),Absorbance Solution #11,Transmittance Solution #11,,Untitled.sp,,,Solution #11,
174.415,0.098,79.816,,2026-02-25 19:55:29,,Analysis Wavelength,,
174.805,0.142,72.071,,Analyze Solution,,Integration Time,10 ms,
175.195,0.052,88.625,,Absorbance/Transmittance,,Number of Scans to Average,1,
175.586,0.272,53.433,,,,Smoothing,0,
175.976,0.268,53.962
176.367,0.197,63.553
176.758,0.161,68.974
177.148,0.079,83.324
177.539,0.430,37.125
177.930,0.000,100.000
178.321,0.301,50.000
178.712,0.134,73.409
179.102,0.378,41.868
179.493,0.052,88.625
179.884,0.085,82.187
180.276,0.159,69.312
180.667,0.079,83.324
181.058,0.275,53.029
181.449,0.186,65.147
181.840,0.173,67.167
182.232,0.159,69.312
182.623,0.121,75.750
183.014,0.159,69.312
183.406,0.121,75.750
183.797,0.142,72.071
184.189,0.156,69.808
184.581,0.000,100.000
184.972,0.147,71.206
185.364,0.121,75.750
185.756,0.159,69.312
186.147,0.000,100.000
186.539,0.000,100.000
186.931,0.109,77.731
187.323,0.029,93.577
187.715,0.131,74.033
188.107,0.220,60.300
188.499,0.254,55.722
188.891,0.131,74.033
189.284,0.248,56.437
189.676,0.137,72.889
190.068,0.236,58.132
190.460,0.121,75.750
190.853,0.159,69.312
191.245,0.301,50.000
191.638,0.112,77.265
192.030,0.301,50.000
192.423,0.022,95.062
192.816,0.202,62.875
193.208,0.112,77.265
193.601,0.254,55.722
193.994,0.173,67.167
194.387,0.173,67.167
194.779,0.189,64.714
195.172,0.301,50.000
195.565,0.112,77.265
195.958,0.045,90.056
196.351,0.000,100.000
196.744,0.301,50.000
197.138,0.220,60.300
197.531,0.325,47.289
197.924,0.057,87.767
198.317,0.137,72.889
198.711,0.000,100.000
199.104,0.301,50.000
199.498,0.173,67.167
199.891,0.228,59.088
200.285,0.121,75.750
200.678,0.137,72.889
201.072,0.121,75.750
201.465,0.057,87.767
201.859,0.236,58.132
202.253,0.184,65.450
202.647,0.142,72.071
203.041,0.197,63.553
203.435,0.340,45.708
203.829,0.184,65.450
204.223,0.361,43.562
204.617,0.147,71.206
205.011,0.142,72.071
205.405,0.173,67.167
205.799,0.275,53.029
206.193,0.344,45.318
206.588,0.275,53.029
206.982,0.241,57.357
207.376,0.206,62.262
207.771,0.098,79.816
208.165,0.212,61.444
208.560,0.301,50.000
208.955,0.282,52.239
209.349,0.128,74.395
209.744,0.184,65.450
210.139,0.250,56.180
210.533,0.348,44.850
210.928,0.423,37.738
211.323,0.391,40.636
211.718,0.250,56.180
212.113,0.236,58.132
212.508,0.974,10.618
212.903,0.340,45.708
213.298,0.444,35.955
213.693,0.301,50.000
214.088,0.383,41.417
214.484,0.301,50.000
214.879,0.370,42.643
215.274,0.436,36.648
215.670,0.350,44.672
216.065,0.570,26.914
216.461,0.532,29.400
216.856,0.497,31.824
217.252,0.657,22.043
217.647,0.719,19.100
218.043,0.508,31.026
218.439,0.505,31.273
218.835,0.687,20.571
219.230,0.805,15.667
219.626,0.839,14.483
220.022,0.703,19.810
220.418,0.888,12.956
220.814,0.749,17.813
221.210,0.805,15.667
221.606,0.891,12.842
222.002,1.192,6.423
222.399,0.846,14.253
222.795,1.044,9.034
223.191,1.394,4.038
223.587,0.997,10.061
223.984,0.967,10.784
224.380,1.114,7.696
224.777,1.159,6.927
225.173,1.117,7.637
225.570,1.089,8.156
225.966,1.188,6.484
226.363,1.196,6.368
226.760,1.139,7.266
227.156,1.387,4.105
227.553,1.514,3.063
227.950,1.140,7.239
228.347,1.176,6.665
228.744,1.542,2.870
229.141,1.374,4.222
229.538,1.316,4.830
229.935,1.341,4.559
230.332,1.458,3.484
230.729,1.056,8.800
231.127,1.374,4.222
231.524,1.412,3.870
231.921,1.444,3.599
232.318,1.372,4.249
232.716,1.563,2.733
233.113,1.765,1.719
233.511,1.588,2.584
233.908,1.292,5.103
234.306,1.513,3.069
234.704,1.727,1.877
235.101,1.505,3.124
235.499,1.426,3.751
235.897,1.736,1.836
236.294,1.490,3.236
236.692,1.452,3.534
237.090,1.628,2.358
237.488,1.442,3.611
237.886,1.557,2.775
238.284,1.413,3.861
238.682,1.572,2.681
239.080,1.519,3.027
239.479,1.526,2.978
239.877,1.482,3.299
240.275,1.834,1.464
240.673,1.419,3.809
241.072,1.685,2.064
241.470,1.508,3.101
241.869,1.619,2.407
242.267,1.345,4.517
242.666,1.779,1.664
243.064,1.892,1.284
243.463,1.563,2.733
243.862,1.487,3.259
244.260,1.432,3.702
244.659,1.584,2.606
245.058,1.846,1.424
245.457,1.474,3.358
245.856,1.548,2.833
246.255,1.563,2.737
246.654,1.470,3.389
247.053,1.956,1.108
247.452,1.548,2.833
247.851,1.607,2.474
248.250,1.635,2.315
248.649,1.607,2.474
249.049,1.602,2.500
249.448,1.520,3.020
249.847,1.584,2.607
250.247,1.633,2.327
250.646,1.586,2.595
251.046,1.657,2.201
251.445,1.609,2.462
251.845,1.664,2.168
252.245,1.588,2.585
252.644,1.769,1.701
253.044,1.864,1.369
253.444,1.995,1.012
253.844,1.825,1.497
254.243,2.072,0.847
254.643,1.948,1.128
255.043,1.499,3.171
255.443,1.551,2.813
255.843,1.922,1.198
256.243,1.714,1.933
256.643,1.954,1.111
257.044,1.858,1.388
257.444,1.747,1.792
257.844,1.579,2.638
258.244,2.089,0.815
258.645,1.827,1.489
259.045,1.790,1.621
259.446,1.715,1.926
259.846,1.909,1.235
260.247,1.858,1.386
260.647,1.799,1.588
261.048,1.884,1.307
261.449,2.050,0.890
261.849,1.949,1.124
262.250,1.707,1.962
262.651,1.765,1.719
263.052,2.650,0.224
263.453,2.694,0.202
263.854,1.697,2.009
264.255,2.004,0.992
264.656,1.778,1.666
265.057,1.913,1.222
265.458,1.783,1.647
265.859,1.913,1.222
266.260,1.731,1.856
266.661,2.001,0.997
267.063,2.108,0.780
267.464,1.907,1.238
267.865,1.473,3.364
268.267,1.828,1.486
268.668,1.775,1.679
269.070,2.043,0.906
269.471,1.657,2.202
269.873,1.753,1.766
270.275,1.947,1.130
270.676,1.860,1.380
271.078,1.741,1.815
271.480,2.046,0.900
271.882,1.919,1.205
272.284,1.643,2.274
272.686,1.750,1.780
273.088,1.760,1.739
273.490,2.055,0.880
273.892,1.866,1.361
274.294,1.782,1.653
274.696,1.982,1.043
275.098,1.929,1.178
275.500,1.765,1.719
275.902,2.057,0.877
276.305,1.834,1.465
276.707,1.811,1.546
277.110,1.913,1.221
277.512,2.119,0.760
277.915,1.649,2.245
278.317,2.065,0.862
278.720,1.861,1.376
279.122,2.185,0.653
279.525,1.951,1.119
279.928,1.976,1.058
280.330,2.077,0.837
280.733,1.943,1.141
281.136,2.087,0.818
281.539,2.573,0.268
281.942,2.359,0.437
282.345,1.988,1.028
282.748,2.125,0.750
283.151,2.066,0.859
283.554,2.634,0.232
283.957,2.015,0.967
284.360,2.109,0.779
284.764,2.020,0.956
285.167,2.323,0.475
285.570,2.532,0.294
285.974,2.819,0.152
286.377,1.799,1.590
286.780,2.139,0.726
287.184,2.154,0.701
287.587,3.000,0.100
287.991,1.805,1.568
288.395,2.316,0.483
288.798,2.200,0.631
289.202,3.000,0.100
289.606,2.133,0.736
290.010,1.992,1.019
290.413,2.351,0.446
290.817,2.011,0.975
291.221,2.387,0.410
291.625,2.090,0.813
292.029,2.250,0.563
292.433,2.164,0.686
292.837,2.243,0.571
293.242,2.256,0.555
293.646,2.420,0.380
294.050,1.904,1.247
294.454,2.164,0.686
294.859,2.534,0.293
295.263,2.379,0.418
295.667,2.503,0.314
296.072,2.520,0.302
296.476,2.140,0.724
296.881,2.138,0.727
297.285,2.343,0.454
297.690,2.333,0.465
298.095,1.705,1.970
298.499,2.371,0.425
298.904,2.884,0.131
299.309,3.000,0.100
299.714,2.369,0.428
300.119,2.393,0.405
300.524,2.849,0.141
300.929,2.849,0.141
301.334,2.660,0.219
301.739,2.870,0.135
302.144,3.000,0.100
302.549,2.201,0.629
302.954,2.318,0.481
303.359,3.000,0.100
303.764,3.000,0.100
304.170,3.000,0.100
304.575,2.845,0.143
304.981,2.280,0.525
305.386,3.000,0.100
305.791,2.447,0.357
306.197,2.371,0.425
306.603,2.296,0.506
307.008,2.367,0.430
307.414,2.534,0.292
307.819,3.000,0.100
308.225,2.029,0.936
308.631,3.000,0.100
309.037,2.624,0.238
309.443,3.000,0.100
309.849,2.527,0.297
310.254,3.000,0.100
310.660,2.769,0.170
311.066,3.000,0.100
311.473,2.419,0.381
311.879,3.000,0.100
312.285,3.000,0.100
312.691,2.359,0.437
313.097,2.661,0.218
313.504,3.000,0.100
313.910,3.000,0.100
314.316,2.694,0.202
314.723,3.000,0.100
315.129,3.000,0.100
315.536,3.000,0.100
315.942,3.000,0.100
316.349,3.000,0.100
316.755,2.526,0.298
317.162,3.000,0.100
317.569,3.000,0.100
317.975,2.733,0.185
318.382,2.534,0.292
318.789,2.783,0.165
319.196,3.000,0.100
319.603,3.000,0.100
320.010,2.770,0.170
320.417,3.000,0.100
320.824,3.000,0.100
321.231,3.000,0.100
321.638,3.000,0.100
322.045,3.000,0.100
322.452,3.000,0.100
322.860,2.574,0.267
323.267,3.000,0.100
323.674,2.682,0.208
324.082,3.000,0.100
324.489,2.717,0.192
324.896,3.000,0.100
325.304,3.000,0.100
325.711,3.000,0.100
326.119,3.000,0.100
326.527,3.000,0.100
326.934,2.424,0.377
327.342,3.000,0.100
327.750,2.716,0.192
328.158,3.000,0.100
328.565,2.120,0.759
328.973,3.000,0.100
329.381,3.000,0.100
329.789,3.000,0.100
330.197,2.441,0.362
330.605,3.000,0.100
331.013,3.000,0.100
331.421,2.632,0.233
331.830,2.297,0.505
332.238,2.378,0.419
332.646,3.000,0.100
333.054,2.443,0.361
333.463,3.000,0.100
333.871,2.387,0.410
334.279,3.000,0.100
334.688,2.268,0.540
335.096,2.614,0.243
335.505,2.609,0.246
335.913,2.384,0.413
336.322,2.270,0.537
336.731,2.893,0.128
337.139,2.122,0.755
337.548,2.216,0.608
337.957,2.491,0.323
338.366,2.118,0.762
338.775,1.909,1.235
339.183,2.203,0.627
339.592,1.935,1.161
340.001,3.000,0.100
340.410,2.376,0.421
340.819,2.641,0.229
341.229,3.000,0.100
341.638,2.098,0.798
342.047,2.339,0.458
342.456,3.000,0.100
342.865,3.000,0.100
343.275,2.264,0.544
343.684,3.000,0.100
344.093,3.000,0.100
344.503,3.000,0.100
344.912,2.388,0.409
345.322,2.817,0.152
345.731,3.000,0.100
346.141,3.000,0.100
346.551,3.000,0.100
346.960,3.000,0.100
347.370,2.762,0.173
347.780,3.000,0.100
348.190,3.000,0.100
348.599,3.000,0.100
349.009,2.864,0.137
349.419,3.000,0.100
349.829,2.901,0.126
350.239,3.000,0.100
350.649,2.456,0.350
351.059,2.920,0.120
351.469,3.000,0.100
351.879,2.990,0.102
352.290,3.000,0.100
352.700,3.000,0.100
353.110,3.000,0.100
353.521,2.491,0.323
353.931,3.000,0.100
354.341,3.000,0.100
354.752,3.000,0.100
355.162,2.920,0.120
355.573,3.000,0.100
355.983,3.000,0.100
356.394,3.000,0.100
356.805,2.864,0.137
357.215,3.000,0.100
357.626,2.537,0.290
358.037,3.000,0.100
358.447,3.000,0.100
358.858,3.000,0.100
359.269,3.000,0.100
359.680,3.000,0.100
360.091,2.738,0.183
360.502,3.000,0.100
360.913,2.261,0.548
361.324,2.519,0.303
361.735,3.000,0.100
362.146,2.896,0.127
362.558,2.931,0.117
362.969,3.000,0.100
363.380,3.000,0.100
363.791,2.282,0.522
364.203,3.000,0.100
364.614,3.000,0.100
365.026,3.000,0.100
365.437,2.403,0.396
365.849,2.827,0.149
366.260,2.532,0.294
366.672,3.000,0.100
367.083,2.339,0.458
367.495,3.000,0.100
367.907,2.280,0.525
368.319,2.836,0.146
368.730,3.000,0.100
369.142,3.000,0.100
369.554,2.216,0.608
369.966,3.000,0.100
370.378,2.414,0.386
370.790,3.000,0.100
371.202,3.000,0.100
371.614,3.000,0.100
372.026,2.334,0.463
372.438,2.826,0.149
372.850,2.231,0.587
373.263,3.000,0.100
373.675,2.826,0.149
374.087,1.987,1.030
374.500,2.469,0.339
374.912,2.308,0.493
375.324,3.000,0.100
375.737,2.013,0.971
376.149,2.702,0.199
376.562,2.297,0.504
376.975,2.334,0.463
377.387,2.356,0.441
377.800,3.000,0.100
378.212,2.323,0.475
378.625,2.196,0.636
379.038,3.000,0.100
379.451,3.000,0.100
379.864,2.429,0.373
380.277,2.396,0.402
380.689,2.644,0.227
381.102,3.000,0.100
381.515,2.160,0.691
381.928,3.000,0.100
382.342,2.416,0.384
382.755,2.013,0.971
383.168,2.323,0.475
383.581,2.439,0.364
383.994,2.244,0.570
384.408,2.088,0.816
384.821,2.084,0.823
385.234,2.725,0.189
385.648,3.000,0.100
386.061,2.074,0.844
386.475,2.263,0.545
386.888,2.614,0.243
387.302,2.592,0.256
387.715,2.396,0.402
388.129,3.000,0.100
388.542,2.218,0.605
388.956,2.399,0.399
389.370,2.580,0.263
389.784,2.447,0.357
390.198,2.085,0.822
390.611,3.000,0.100
391.025,2.526,0.298
391.439,3.000,0.100
391.853,2.442,0.361
392.267,3.000,0.100
392.681,3.000,0.100
393.095,2.691,0.204
393.509,3.000,0.100
393.924,3.000,0.100
394.338,3.000,0.100
394.752,2.696,0.201
395.166,3.000,0.100
395.581,3.000,0.100
395.995,3.000,0.100
396.409,2.436,0.366
396.824,2.516,0.305
397.238,3.000,0.100
397.653,3.000,0.100
398.067,3.000,0.100
398.482,3.000,0.100
398.897,2.961,0.109
399.311,3.000,0.100
399.726,3.000,0.100
400.141,2.993,0.102
400.555,2.312,0.488
400.970,2.450,0.355
401.385,3.000,0.100
401.800,3.000,0.100
402.215,3.000,0.100
402.630,3.000,0.100
403.045,3.000,0.100
403.460,3.000,0.100
403.875,3.000,0.100
404.290,3.000,0.100
404.705,3.000,0.100
405.120,2.993,0.102
405.536,3.000,0.100
405.951,2.500,0.316
406.366,3.000,0.100
406.782,2.804,0.157
407.197,3.000,0.100
407.612,3.000,0.100
408.028,3.000,0.100
408.443,2.065,0.861
408.859,3.000,0.100
409.274,2.395,0.403
409.690,2.750,0.178
410.106,3.000,0.100
410.521,3.000,0.100
410.937,3.000,0.100
411.353,3.000,0.100
411.769,3.000,0.100
412.184,3.000,0.100
412.600,2.598,0.252
413.016,3.000,0.100
413.432,3.000,0.100
413.848,3.000,0.100
414.264,2.987,0.103
414.680,3.000,0.100
415.096,3.000,0.100
415.512,2.884,0.131
415.928,2.884,0.131
416.345,2.786,0.164
416.761,3.000,0.100
417.177,2.856,0.139
417.593,3.000,0.100
418.010,2.877,0.133
418.426,3.000,0.100
418.843,3.000,0.100
419.259,3.000,0.100
419.676,2.910,0.123
420.092,3.000,0.100
420.509,3.000,0.100
420.925,3.000,0.100
421.342,3.000,0.100
421.759,3.000,0.100
422.175,3.000,0.100
422.592,3.000,0.100
423.009,2.330,0.467
423.426,2.503,0.314
423.843,3.000,0.100
424.259,2.576,0.266
424.676,2.786,0.164
425.093,2.799,0.159
425.510,2.702,0.199
425.927,2.364,0.432
426.345,2.373,0.424
426.762,3.000,0.100
427.179,3.000,0.100
427.596,2.571,0.268
428.013,2.220,0.602
428.431,2.830,0.148
428.848,3.000,0.100
429.265,2.817,0.152
429.683,3.000,0.100
430.100,2.277,0.529
430.517,2.481,0.330
430.935,3.000,0.100
431.352,3.000,0.100
431.770,2.315,0.484
432.188,2.538,0.290
432.605,2.582,0.262
433.023,3.000,0.100
433.441,2.236,0.581
433.858,3.000,0.100
434.276,2.373,0.424
434.694,2.400,0.398
435.112,2.151,0.706
435.530,2.682,0.208
435.948,2.118,0.762
436.366,2.079,0.833
436.784,2.218,0.606
437.202,3.000,0.100
437.620,3.000,0.100
438.038,2.084,0.825
438.456,2.531,0.294
438.874,3.000,0.100
439.292,3.000,0.100
439.711,2.862,0.138
440.129,3.000,0.100
440.547,2.206,0.622
440.965,2.485,0.327
441.384,3.000,0.100
441.802,2.497,0.319
442.221,1.900,1.257
442.639,3.000,0.100
443.058,2.307,0.494
443.476,2.440,0.363
443.895,2.751,0.178
444.314,3.000,0.100
444.732,3.000,0.100
445.151,2.771,0.169
445.570,2.454,0.351
445.989,3.000,0.100
446.407,3.000,0.100
446.826,3.000,0.100
447.245,2.116,0.766
447.664,2.589,0.258
448.083,3.000,0.100
448.502,2.010,0.978
448.921,2.213,0.613
449.340,2.334,0.464
449.759,2.482,0.329
450.178,2.315,0.484
450.598,3.000,0.100
451.017,2.453,0.353
451.436,2.482,0.329
451.855,2.417,0.383
452.275,3.000,0.100
452.694,2.212,0.614
453.113,2.182,0.658
453.533,2.187,0.650
453.952,2.633,0.233
454.372,3.000,0.100
454.791,2.360,0.436
455.211,3.000,0.100
455.630,2.725,0.189
456.050,2.508,0.310
456.470,3.000,0.100
456.889,2.031,0.932
457.309,2.017,0.961
457.729,2.574,0.267
458.149,3.000,0.100
458.569,3.000,0.100
458.989,1.938,1.155
459.408,2.517,0.304
459.828,2.825,0.149
460.248,2.664,0.217
460.668,2.346,0.451
461.089,3.000,0.100
461.509,2.171,0.675
461.929,2.117,0.764
462.349,2.063,0.866
462.769,2.241,0.574
463.189,1.914,1.219
463.610,2.961,0.109
464.030,2.568,0.270
464.450,3.000,0.100
464.871,2.156,0.699
465.291,2.318,0.481
465.711,1.919,1.205
466.132,2.218,0.606
466.552,2.664,0.217
466.973,2.023,0.948
467.394,2.335,0.462
467.814,2.479,0.332
468.235,2.095,0.803
468.656,2.603,0.249
469.076,2.616,0.242
469.497,2.053,0.885
469.918,1.956,1.108
470.339,2.337,0.460
470.760,1.999,1.002
471.180,2.281,0.524
471.601,3.000,0.100
472.022,2.117,0.764
472.443,3.000,0.100
472.864,2.398,0.400
473.285,3.000,0.100
473.706,1.957,1.103
474.128,2.303,0.498
474.549,2.453,0.353
474.970,3.000,0.100
475.391,2.096,0.802
475.813,2.212,0.614
476.234,2.633,0.233
476.655,3.000,0.100
477.077,1.815,1.529
477.498,2.103,0.789
477.919,2.115,0.768
478.341,2.226,0.594
478.762,2.309,0.491
479.184,3.000,0.100
479.606,2.843,0.144
480.027,1.850,1.412
480.449,2.008,0.982
480.870,3.000,0.100
481.292,2.155,0.699
481.714,2.155,0.699
482.136,3.000,0.100
482.558,1.962,1.092
482.979,3.000,0.100
483.401,2.978,0.105
483.823,3.000,0.100
484.245,3.000,0.100
484.667,3.000,0.100
485.089,3.000,0.100
485.511,3.000,0.100
485.933,2.247,0.566
486.355,3.000,0.100
486.778,2.299,0.502
487.200,2.754,0.176
487.622,2.243,0.571
488.044,2.711,0.195
488.467,2.246,0.568
488.889,2.021,0.952
489.311,1.926,1.185
489.734,3.000,0.100
490.156,2.554,0.279
490.579,2.318,0.481
491.001,2.046,0.900
491.424,2.284,0.520
491.846,2.055,0.882
492.269,2.350,0.447
492.691,3.000,0.100
493.114,1.955,1.110
493.537,1.937,1.157
493.959,1.736,1.836
494.382,2.937,0.116
494.805,2.343,0.454
495.228,2.684,0.207
495.651,1.906,1.241
496.074,2.424,0.377
496.497,1.821,1.510
496.919,2.058,0.875
497.342,1.995,1.012
497.766,2.451,0.354
498.189,1.790,1.621
498.612,1.730,1.863
499.035,1.888,1.295
499.458,2.288,0.515
499.881,1.699,1.999
500.304,1.905,1.244
500.728,2.113,0.771
501.151,1.775,1.679
501.574,1.602,2.502
501.998,2.048,0.895
502.421,1.872,1.343
502.844,1.729,1.866
503.268,2.016,0.963
503.691,1.829,1.482
504.115,1.712,1.941
504.539,1.812,1.543
504.962,1.533,2.928
505.386,1.508,3.105
505.809,1.676,2.110
506.233,1.704,1.975
506.657,1.695,2.017
507.081,1.528,2.967
507.504,1.818,1.522
507.928,1.597,2.529
508.352,1.692,2.034
508.776,1.693,2.026
509.200,1.692,2.034
509.624,1.735,1.839
510.048,1.559,2.760
510.472,1.794,1.606
510.896,1.940,1.148
511.320,1.818,1.521
511.744,1.767,1.710
512.168,2.182,0.657
512.592,1.530,2.954
513.017,1.792,1.613
513.441,1.788,1.630
513.865,1.701,1.992
514.289,1.648,2.251
514.714,1.966,1.082
515.138,1.779,1.665
515.563,1.456,3.503
515.987,1.386,4.107
516.411,1.746,1.794
516.836,1.826,1.494
517.261,1.831,1.477
517.685,1.599,2.517
518.110,1.707,1.962
518.534,1.833,1.468
518.959,1.725,1.882
519.384,1.875,1.335
519.808,2.156,0.698
520.233,1.770,1.699
520.658,1.631,2.339
521.083,1.965,1.083
521.508,1.965,1.083
521.933,1.785,1.640
522.358,1.642,2.280
522.782,1.785,1.640
523.207,1.594,2.545
523.632,1.860,1.379
524.058,1.586,2.595
524.483,1.835,1.462
524.908,1.721,1.902
525.333,1.998,1.005
525.758,1.730,1.862
526.183,1.775,1.679
526.609,1.544,2.856
527.034,1.897,1.267
527.459,1.749,1.784
527.884,1.686,2.062
528.310,1.481,3.305
528.735,1.815,1.529
529.161,1.568,2.704
529.586,1.621,2.392
530.012,2.181,0.659
530.437,1.920,1.203
530.863,1.617,2.415
531.288,1.692,2.031
531.714,1.963,1.089
532.140,2.131,0.739
532.565,1.815,1.529
532.991,2.012,0.972
533.417,3.000,0.100
533.843,1.712,1.942
534.268,1.688,2.052
534.694,1.624,2.376
535.120,1.856,1.393
535.546,1.660,2.189
535.972,2.082,0.828
536.398,1.829,1.482
536.824,1.784,1.645
537.250,1.733,1.847
537.676,2.240,0.576
538.102,1.961,1.094
538.528,1.799,1.590
538.954,1.775,1.677
539.381,1.889,1.291
539.807,1.539,2.888
540.233,1.704,1.975
540.659,2.008,0.982
541.086,2.032,0.929
541.512,1.771,1.696
541.938,1.714,1.933
542.365,1.759,1.742
542.791,1.853,1.401
543.218,2.409,0.390
543.644,1.800,1.585
544.071,1.830,1.478
544.497,1.708,1.958
544.924,1.765,1.719
545.351,1.728,1.869
545.777,1.954,1.111
546.204,2.117,0.764
546.631,2.068,0.856
547.057,1.785,1.640
547.484,2.016,0.963
547.911,1.607,2.471
548.338,1.945,1.135
548.765,1.945,1.135
549.192,2.197,0.636
549.619,1.593,2.553
550.046,1.814,1.536
550.473,1.657,2.203
550.900,1.849,1.417
551.327,1.876,1.331
551.754,1.947,1.130
552.181,1.872,1.343
552.608,1.945,1.135
553.035,2.050,0.890
553.462,2.536,0.291
553.890,2.322,0.477
554.317,1.988,1.028
554.744,2.008,0.982
555.172,1.679,2.095
555.599,2.326,0.472
556.026,1.947,1.130
556.454,2.565,0.272
556.881,1.796,1.601
557.309,2.310,0.489
557.736,2.024,0.947
558.164,2.584,0.261
558.591,1.855,1.396
559.019,2.325,0.473
559.447,2.360,0.436
559.874,2.604,0.249
560.302,2.005,0.989
560.730,1.993,1.017
561.158,2.041,0.909
561.585,2.346,0.451
562.013,2.615,0.242
562.441,1.967,1.080
562.869,2.065,0.862
563.297,2.138,0.727
563.725,3.000,0.100
564.153,2.237,0.579
564.581,2.421,0.380
565.009,1.974,1.061
565.437,3.000,0.100
565.865,2.451,0.354
566.293,2.240,0.576
566.721,2.462,0.345
567.149,3.000,0.100
567.578,2.153,0.703
568.006,3.000,0.100
568.434,3.000,0.100
568.862,3.000,0.100
569.291,3.000,0.100
569.719,3.000,0.100
570.148,3.000,0.100
570.576,3.000,0.100
571.004,3.000,0.100
571.433,3.000,0.100
571.861,3.000,0.100
572.290,3.000,0.100
572.719,3.000,0.100
573.147,3.000,0.100
573.576,3.000,0.100
574.004,3.000,0.100
574.433,3.000,0.100
574.862,3.000,0.100
575.291,3.000,0.100
575.719,3.000,0.100
576.148,3.000,0.100
576.577,3.000,0.100
577.006,3.000,0.100
577.435,3.000,0.100
577.864,3.000,0.100
578.293,3.000,0.100
578.722,3.000,0.100
579.151,3.000,0.100
579.580,3.000,0.100
580.009,3.000,0.100
580.438,3.000,0.100
580.867,3.000,0.100
581.296,3.000,0.100
581.725,3.000,0.100
582.155,3.000,0.100
582.584,3.000,0.100
583.013,3.000,0.100
583.443,3.000,0.100
583.872,3.000,0.100
584.301,3.000,0.100
584.731,3.000,0.100
585.160,3.000,0.100
585.590,3.000,0.100
586.019,3.000,0.100
586.449,3.000,0.100
586.878,3.000,0.100
587.308,3.000,0.100
587.737,3.000,0.100
588.167,3.000,0.100
588.597,3.000,0.100
589.026,3.000,0.100
589.456,3.000,0.100
589.886,3.000,0.100
590.315,3.000,0.100
590.745,2.435,0.367
591.175,3.000,0.100
591.605,3.000,0.100
592.035,3.000,0.100
592.465,3.000,0.100
592.895,3.000,0.100
593.325,3.000,0.100
593.755,3.000,0.100
594.185,3.000,0.100
594.615,3.000,0.100
595.045,3.000,0.100
595.475,3.000,0.100
595.905,3.000,0.100
596.335,3.000,0.100
596.766,3.000,0.100
597.196,3.000,0.100
597.626,3.000,0.100
598.056,3.000,0.100
598.487,3.000,0.100
598.917,3.000,0.100
599.347,3.000,0.100
599.778,3.000,0.100
600.208,3.000,0.100
600.639,3.000,0.100
601.069,3.000,0.100
601.500,2.486,0.327
601.930,3.000,0.100
602.361,3.000,0.100
602.791,3.000,0.100
603.222,3.000,0.100
603.653,3.000,0.100
604.083,3.000,0.100
604.514,3.000,0.100
604.945,3.000,0.100
605.376,3.000,0.100
605.806,3.000,0.100
606.237,3.000,0.100
606.668,3.000,0.100
607.099,3.000,0.100
607.530,3.000,0.100
607.961,3.000,0.100
608.392,3.000,0.100
608.823,3.000,0.100
609.254,3.000,0.100
609.685,3.000,0.100
610.116,3.000,0.100
610.547,3.000,0.100
610.978,3.000,0.100
611.409,3.000,0.100
611.841,3.000,0.100
612.272,3.000,0.100
612.703,3.000,0.100
613.134,3.000,0.100
613.566,3.000,0.100
613.997,3.000,0.100
614.428,3.000,0.100
614.860,3.000,0.100
615.291,3.000,0.100
615.723,3.000,0.100
616.154,3.000,0.100
616.586,3.000,0.100
617.017,3.000,0.100
617.449,3.000,0.100
617.880,3.000,0.100
618.312,3.000,0.100
618.744,3.000,0.100
619.175,3.000,0.100
619.607,3.000,0.100
620.039,3.000,0.100
620.470,3.000,0.100
620.902,3.000,0.100
621.334,2.976,0.106
621.766,3.000,0.100
622.198,3.000,0.100
622.630,3.000,0.100
623.062,3.000,0.100
623.493,3.000,0.100
623.925,3.000,0.100
624.357,3.000,0.100
624.789,2.781,0.165
625.221,3.000,0.100
625.654,2.368,0.429
626.086,3.000,0.100
626.518,3.000,0.100
626.950,3.000,0.100
627.382,3.000,0.100
627.814,2.309,0.491
628.247,3.000,0.100
628.679,3.000,0.100
629.111,3.000,0.100
629.544,2.559,0.276
629.976,3.000,0.100
630.408,2.479,0.332
630.841,2.674,0.212
631.273,3.000,0.100
631.706,3.000,0.100
632.138,2.129,0.742
632.571,3.000,0.100
633.003,3.000,0.100
633.436,2.362,0.435
633.868,2.227,0.593
634.301,3.000,0.100
634.733,3.000,0.100
635.166,2.453,0.352
635.599,2.346,0.451
636.032,2.757,0.175
636.464,2.605,0.248
636.897,2.632,0.234
637.330,3.000,0.100
637.763,3.000,0.100
638.196,2.127,0.746
638.629,2.126,0.749
639.061,2.331,0.466
639.494,3.000,0.100
639.927,3.000,0.100
640.360,2.329,0.469
640.793,3.000,0.100
641.226,2.691,0.204
641.659,3.000,0.100
642.093,2.021,0.952
642.526,2.748,0.179
642.959,2.218,0.605
643.392,3.000,0.100
643.825,2.186,0.652
644.258,2.761,0.174
644.692,2.114,0.769
645.125,3.000,0.100
645.558,3.000,0.100
645.992,2.194,0.639
646.425,1.910,1.230
646.858,2.225,0.596
647.292,2.287,0.517
647.725,2.499,0.317
648.159,2.503,0.314
648.592,2.763,0.173
649.026,2.046,0.899
649.459,2.164,0.685
649.893,2.812,0.154
650.326,2.943,0.114
650.760,2.699,0.200
651.194,3.000,0.100
651.627,2.684,0.207
652.061,2.066,0.860
652.495,2.237,0.579
652.929,2.146,0.715
653.362,2.921,0.120
653.796,2.688,0.205
654.230,3.000,0.100
654.664,3.000,0.100
655.098,3.000,0.100
655.532,3.000,0.100
655.966,3.000,0.100
656.400,3.000,0.100
656.834,2.434,0.368
657.268,2.403,0.396
657.702,2.380,0.417
658.136,2.469,0.339
658.570,2.409,0.390
659.004,3.000,0.100
659.438,2.121,0.758
659.872,3.000,0.100
660.306,2.333,0.465
660.741,2.735,0.184
661.175,2.438,0.365
661.609,2.214,0.611
662.043,2.186,0.652
662.478,2.482,0.329
662.912,1.875,1.334
663.347,2.144,0.718
663.781,2.237,0.579
664.215,2.563,0.274
664.650,2.792,0.161
665.084,2.523,0.300
665.519,2.053,0.886
665.953,1.974,1.061
666.388,1.862,1.373
666.822,2.316,0.483
667.257,2.058,0.876
667.692,1.888,1.295
668.126,1.777,1.671
668.561,2.021,0.952
668.996,1.722,1.897
669.430,1.693,2.028
669.865,1.828,1.486
670.300,1.889,1.291
670.735,1.666,2.156
671.170,1.611,2.447
671.604,1.609,2.462
672.039,1.593,2.554
672.474,1.420,3.799
672.909,1.388,4.092
673.344,1.356,4.404
673.779,1.295,5.069
674.214,1.257,5.535
674.649,1.196,6.373
675.084,1.188,6.492
675.519,1.123,7.535
675.954,1.116,7.653
676.390,1.074,8.431
676.825,1.017,9.608
677.260,0.970,10.706
677.695,0.969,10.739
678.130,0.907,12.396
678.566,0.886,13.009
679.001,0.860,13.808
679.436,0.812,15.432
679.871,0.773,16.854
680.307,0.770,16.996
680.742,0.719,19.100
681.178,0.694,20.228
681.613,0.660,21.892
682.048,0.653,22.231
682.484,0.641,22.879
682.919,0.613,24.399
683.355,0.594,25.449
683.791,0.568,27.044
684.226,0.546,28.452
684.662,0.515,30.547
685.097,0.511,30.814
685.533,0.484,32.797
685.969,0.474,33.590
686.404,0.444,35.986
686.840,0.433,36.857
687.276,0.411,38.809
687.712,0.417,38.295
688.147,0.392,40.519
688.583,0.375,42.169
689.019,0.368,42.868
689.455,0.355,44.126
689.891,0.344,45.288
690.327,0.328,47.028
690.763,0.321,47.807
691.199,0.313,48.625
691.635,0.313,48.611
692.071,0.287,51.679
692.507,0.282,52.220
692.943,0.255,55.529
693.379,0.252,55.921
693.815,0.269,53.885
694.251,0.246,56.779
694.687,0.230,58.861
695.123,0.221,60.080
695.560,0.234,58.335
695.996,0.223,59.859
696.432,0.208,61.945
696.868,0.195,63.829
697.305,0.200,63.040
697.741,0.182,65.706
698.177,0.183,65.619
698.614,0.177,66.527
699.050,0.174,66.989
699.487,0.168,67.915
699.923,0.162,68.826
700.360,0.155,69.949
700.796,0.154,70.185
701.233,0.154,70.120
701.669,0.145,71.652
702.106,0.139,72.566
702.542,0.133,73.679
702.979,0.140,72.467
703.415,0.127,74.581
703.852,0.120,75.828
704.289,0.120,75.879
704.726,0.128,74.400
705.162,0.126,74.781
705.599,0.128,74.420
706.036,0.115,76.736
706.473,0.112,77.270
706.909,0.110,77.697
707.346,0.100,79.500
707.783,0.108,78.002
708.220,0.098,79.861
708.657,0.101,79.237
709.094,0.096,80.089
709.531,0.092,80.956
709.968,0.090,81.344
710.405,0.083,82.695
710.842,0.086,81.980
711.279,0.092,80.976
711.716,0.092,80.900
712.153,0.099,79.579
712.590,0.080,83.227
713.027,0.074,84.363
713.465,0.068,85.605
713.902,0.070,85.103
714.339,0.070,85.208
714.776,0.070,85.122
715.214,0.062,86.652
715.651,0.068,85.493
716.088,0.069,85.353
716.525,0.071,84.902
716.963,0.069,85.360
717.400,0.068,85.472
717.838,0.066,85.897
718.275,0.065,86.073
718.713,0.064,86.305
719.150,0.055,88.189
719.587,0.063,86.560
720.025,0.054,88.231
720.463,0.052,88.707
720.900,0.045,90.149
721.338,0.051,88.918
721.775,0.060,87.187
722.213,0.049,89.236
722.651,0.057,87.622
723.088,0.053,88.462
723.526,0.048,89.626
723.964,0.050,89.222
724.401,0.058,87.554
724.839,0.049,89.419
725.277,0.043,90.496
725.715,0.040,91.235
726.153,0.043,90.537
726.591,0.050,89.151
727.028,0.045,90.142
727.466,0.050,89.214
727.904,0.049,89.280
728.342,0.050,89.110
728.780,0.040,91.274
729.218,0.049,89.304
729.656,0.053,88.423
730.094,0.042,90.697
730.532,0.039,91.332
730.970,0.034,92.459
731.409,0.041,91.095
731.847,0.038,91.658
732.285,0.035,92.225
732.723,0.033,92.636
733.161,0.041,91.036
733.599,0.030,93.310
734.038,0.026,94.188
734.476,0.032,93.000
734.914,0.032,92.917
735.353,0.039,91.384
735.791,0.039,91.410
736.229,0.025,94.472
736.668,0.025,94.471
737.106,0.028,93.695
737.544,0.030,93.269
737.983,0.034,92.563
738.421,0.030,93.396
738.860,0.023,94.939
739.298,0.028,93.853
739.737,0.022,95.017
740.175,0.023,94.886
740.614,0.040,91.200
741.053,0.035,92.205
741.491,0.043,90.635
741.930,0.034,92.380
742.369,0.027,94.017
742.807,0.027,93.987
743.246,0.033,92.636
743.685,0.028,93.728
744.123,0.025,94.420
744.562,0.024,94.608
745.001,0.024,94.649
745.440,0.029,93.624
745.879,0.028,93.745
746.317,0.030,93.376
746.756,0.028,93.697
747.195,0.023,94.774
747.634,0.035,92.281
748.073,0.025,94.328
748.512,0.024,94.593
748.951,0.035,92.314
749.390,0.029,93.604
749.829,0.019,95.822
750.268,0.025,94.407
750.707,0.022,95.053
751.146,0.034,92.566
751.585,0.031,93.137
752.025,0.031,93.215
752.464,0.036,91.968
752.903,0.023,94.792
753.342,0.028,93.716
753.781,0.024,94.594
754.221,0.025,94.499
754.660,0.021,95.269
755.099,0.026,94.211
755.538,0.024,94.699
755.978,0.026,94.162
756.417,0.030,93.276
756.857,0.025,94.388
757.296,0.014,96.779
757.735,0.021,95.345
758.175,0.021,95.210
758.614,0.021,95.383
759.054,0.015,96.698
759.493,0.007,98.446
759.933,0.014,96.821
760.372,0.023,94.824
760.812,0.021,95.213
761.251,0.029,93.543
761.691,0.031,93.118
762.131,0.029,93.588
762.570,0.022,95.044
763.010,0.019,95.782
763.450,0.024,94.706
763.889,0.024,94.537
764.329,0.014,96.918
764.769,0.017,96.202
765.209,0.025,94.404
765.648,0.015,96.554
766.088,0.026,94.097
766.528,0.018,95.886
766.968,0.017,96.142
767.408,0.023,94.755
767.848,0.019,95.778
768.288,0.022,95.009
768.728,0.016,96.309
769.168,0.024,94.623
769.608,0.017,96.180
770.048,0.006,98.741
770.488,0.009,98.001
770.928,0.017,96.208
771.368,0.021,95.320
771.808,0.020,95.598
772.248,0.013,97.134
772.688,0.021,95.258
773.128,0.017,96.212
773.568,0.017,96.105
774.008,0.016,96.317
774.449,0.026,94.226
774.889,0.024,94.622
775.329,0.022,95.052
775.769,0.019,95.787
776.210,0.020,95.566
776.650,0.020,95.535
777.090,0.022,95.152
777.531,0.019,95.768
777.971,0.016,96.300
778.411,0.012,97.239
778.852,0.022,95.002
779.292,0.015,96.591
779.733,0.023,94.797
780.173,0.017,96.079
780.614,0.017,96.171
781.054,0.008,98.262
781.495,0.012,97.373
781.935,0.019,95.657
782.376,0.013,96.952
782.816,0.007,98.313
783.257,0.017,96.079
783.698,0.015,96.509
784.138,0.025,94.469
784.579,0.019,95.788
785.020,0.011,97.476
785.460,0.023,94.786
785.901,0.013,96.949
786.342,0.005,98.822
786.783,0.001,99.729
787.223,0.016,96.385
787.664,0.016,96.277
788.105,0.012,97.336
788.546,0.018,96.003
788.987,0.015,96.701
789.428,0.019,95.697
789.869,0.019,95.758
790.310,0.016,96.272
790.751,0.020,95.441
791.192,0.015,96.552
791.632,0.023,94.887
792.073,0.020,95.419
792.515,0.012,97.294
792.956,0.014,96.904
793.397,0.006,98.675
793.838,0.013,96.964
794.279,0.025,94.345
794.720,0.017,96.051
795.161,0.015,96.652
795.602,0.011,97.512
796.043,0.020,95.533
796.485,0.021,95.172
796.926,0.015,96.600
797.367,0.013,97.038
797.808,0.012,97.268
798.250,0.024,94.525
798.691,0.011,97.598
799.132,0.019,95.767
799.574,0.012,97.245
800.015,0.014,96.769
800.456,0.020,95.401
800.898,0.019,95.696
801.339,0.012,97.271
801.781,0.017,96.164
802.222,0.012,97.221
802.664,0.007,98.382
803.105,0.012,97.250
803.547,0.013,97.136
803.988,0.011,97.554
804.430,0.011,97.409
804.871,0.011,97.546
805.313,0.009,97.870
805.754,0.016,96.288
806.196,0.018,96.034
806.638,0.024,94.666
807.079,0.014,96.745
807.521,0.008,98.125
807.963,0.007,98.447
808.404,0.009,97.881
808.846,0.018,95.893
809.288,0.024,94.528
809.730,0.011,97.431
810.171,0.010,97.821
810.613,0.014,96.857
811.055,0.019,95.696
811.497,0.018,95.880
811.939,0.019,95.674
812.381,0.013,96.993
812.823,0.016,96.494
813.265,0.006,98.677
813.706,0.016,96.423
814.148,0.006,98.645
814.590,0.009,97.991
815.032,0.009,97.991
815.474,0.012,97.250
815.916,0.005,98.902
816.359,0.012,97.287
816.801,0.016,96.476
817.243,0.009,97.921
817.685,0.018,95.896
818.127,0.007,98.303
818.569,0.011,97.472
819.011,0.011,97.525
819.453,0.007,98.296
819.896,0.010,97.632
820.338,0.013,96.994
820.780,0.025,94.427
821.222,0.024,94.550
821.665,0.016,96.461
822.107,0.019,95.726
822.549,0.011,97.408
822.992,0.009,97.952
823.434,0.007,98.481
823.876,0.016,96.368
824.319,0.008,98.174
824.761,0.008,98.110
825.203,0.005,98.799
825.646,0.006,98.547
826.088,0.010,97.694
826.531,0.020,95.604
826.973,0.020,95.401
827.416,0.011,97.593
827.858,0.018,95.903
828.301,0.006,98.564
828.744,0.008,98.103
829.186,0.014,96.874
829.629,0.014,96.886
830.071,0.008,98.079
830.514,0.014,96.928
830.957,0.017,96.215
831.399,0.016,96.460
831.842,0.005,98.786
832.285,0.010,97.835
832.727,0.011,97.500
833.170,0.011,97.505
833.613,0.012,97.229
834.056,0.012,97.314
834.498,0.023,94.826
834.941,0.006,98.642
835.384,0.009,97.840
835.827,0.003,99.244
836.270,0.013,97.148
836.713,0.008,98.243
837.156,0.015,96.520
837.599,0.023,94.880
838.042,0.014,96.788
838.484,0.010,97.740
838.927,0.015,96.608
839.370,0.014,96.884
839.813,0.012,97.192
840.256,0.007,98.294
840.700,0.013,97.080
841.143,0.011,97.549
841.586,0.010,97.747
842.029,0.021,95.323
842.472,0.010,97.624
842.915,0.004,99.091
843.358,0.018,96.029
843.801,0.015,96.563
844.244,0.010,97.752
844.688,0.014,96.768
845.131,0.005,98.834
845.574,0.017,96.182
846.017,0.015,96.496
846.461,0.015,96.595
846.904,0.011,97.474
847.347,0.020,95.449
847.791,0.016,96.448
848.234,0.018,95.848
848.677,0.014,96.876
849.121,0.008,98.210
849.564,0.010,97.696
850.007,0.016,96.486
850.451,0.017,96.138
850.894,0.009,97.883
851.338,9.837E-4,99.774
851.781,0.016,96.482
852.225,0.000,100.000
852.668,0.008,98.211
853.112,0.014,96.866
853.555,0.019,95.800
853.999,0.013,96.980
854.442,0.017,96.079
854.886,0.012,97.190
855.330,0.011,97.511
855.773,0.004,99.088
856.217,0.019,95.793
856.660,0.000,100.000
857.104,0.006,98.728
857.548,0.004,98.999
857.992,0.008,98.221
858.435,0.014,96.831
858.879,0.003,99.413
859.323,0.010,97.658
859.767,0.010,97.800
860.210,0.004,98.973
860.654,0.005,98.940
861.098,0.008,98.230
861.542,0.018,96.048
861.986,0.009,97.923
862.430,0.008,98.086
862.873,0.005,98.878
863.317,0.011,97.608
863.761,0.009,97.902
864.205,0.008,98.148
864.649,0.010,97.685
865.093,0.008,98.133
865.537,0.003,99.322
865.981,8.195E-4,99.811
866.425,0.012,97.296
866.869,0.006,98.626
867.313,0.009,98.006
867.757,0.004,99.003
868.201,0.005,98.855
868.645,0.000,100.000
869.090,0.010,97.777
869.534,0.006,98.695
869.978,0.000,100.000
870.422,0.002,99.493
870.866,0.018,95.887
871.310,0.011,97.593
871.755,0.009,97.850
872.199,0.013,97.077
872.643,0.012,97.189
873.087,0.015,96.618
873.532,0.006,98.626
873.976,0.003,99.261
874.420,0.012,97.248
874.865,0.000,100.000
875.309,0.013,96.940
875.753,0.004,99.078
876.198,0.013,97.022
876.642,0.006,98.594
877.086,0.001,99.749
877.531,0.014,96.853
877.975,0.009,98.030
878.420,0.009,98.030
878.864,0.011,97.551
879.309,0.005,98.814
879.753,0.000,100.000
880.198,0.003,99.414
880.642,0.013,97.148
881.087,0.002,99.503
881.531,0.002,99.487
881.976,0.005,98.876
882.420,0.004,99.016
882.865,0.000,100.000
883.310,0.003,99.344
883.754,0.000,100.000
884.199,0.005,98.829
884.644,0.000,100.000
885.088,0.005,98.880
885.533,0.006,98.738
885.978,0.000,100.000
886.422,0.010,97.648
886.867,2.067E-4,99.952
887.312,0.000,100.000
887.757,0.006,98.577
888.201,0.004,99.117
888.646,0.000,100.000
889.091,0.008,98.072
889.536,0.001,99.760
889.981,0.008,98.166
890.426,0.009,97.865
890.871,0.005,98.916
891.315,0.005,98.916
891.760,0.000,100.000
892.205,0.017,96.088
892.650,0.008,98.143
893.095,0.004,99.048
893.540,0.000,100.000
893.985,0.008,98.155
894.430,0.000,100.000
894.875,0.003,99.369
895.320,0.005,98.832
895.765,0.001,99.748
896.210,0.007,98.320
896.655,0.000,100.000
897.100,0.000,100.000
897.546,0.003,99.316
897.991,0.005,98.961
898.436,0.013,97.140
898.881,0.000,100.000
899.326,0.002,99.627
899.771,0.011,97.454
900.216,0.000,100.000
900.662,0.012,97.178
901.107,7.270E-4,99.833
901.552,0.005,98.888
901.997,0.009,97.980
902.443,0.002,99.627
902.888,0.000,100.000
903.333,0.000,100.000
903.779,0.012,97.322
904.224,0.000,100.000
904.669,0.000,100.000
905.115,0.000,100.000
905.560,0.000,100.000
906.005,0.000,100.000
906.451,0.000,100.000
906.896,2.250E-4,99.948
907.342,0.000,100.000
907.787,0.007,98.396
908.232,0.007,98.361
908.678,0.000,100.000
909.123,3.809E-4,99.912
909.569,0.000,100.000
910.014,0.004,99.141
910.460,0.006,98.535
910.906,0.000,100.000
911.351,0.000,100.000
911.797,0.000,100.000
912.242,0.006,98.650
912.688,0.000,100.000
913.133,0.000,100.000
913.579,0.000,100.000
914.025,0.004,99.033
914.470,0.000,100.000
914.916,0.000,100.000
915.362,0.002,99.639
915.807,0.000,100.000
916.253,0.000,100.000
916.699,0.000,100.000
917.145,0.000,100.000
917.590,0.000,100.000
918.036,0.000,100.000
918.482,0.000,100.000
918.928,0.000,100.000
919.373,0.000,100.000
919.819,0.000,100.000
920.265,0.000,100.000
920.711,0.000,100.000
921.157,0.000,100.000
921.603,0.000,100.000
922.049,0.000,100.000
922.495,0.003,99.299
922.940,0.000,100.000
923.386,0.000,100.000
923.832,0.000,100.000
924.278,0.000,100.000
924.724,0.000,100.000
925.170,0.008,98.082
925.616,3.828E-4,99.912
926.062,0.000,100.000
926.508,0.000,100.000
926.954,4.597E-4,99.894
927.400,0.003,99.206
927.846,0.011,97.398
928.293,0.007,98.511
928.739,0.000,100.000
929.185,0.000,100.000
929.631,0.002,99.601
930.077,0.000,100.000
930.523,0.000,100.000
930.969,0.000,100.000
931.415,0.000,100.000
931.862,0.000,100.000
932.308,0.000,100.000
932.754,0.000,100.000
933.200,0.000,100.000
933.647,0.000,100.000
934.093,0.002,99.519
934.539,0.005,98.957
934.985,1.621E-4,99.963
935.432,0.000,100.000
935.878,0.000,100.000
936.324,0.000,100.000
936.771,0.000,100.000
937.217,0.000,100.000
937.663,4.935E-4,99.886
938.110,0.000,100.000
938.556,0.000,100.000
939.002,0.003,99.309
939.449,0.000,100.000
939.895,0.000,100.000
940.342,0.000,100.000
940.788,0.000,100.000
941.235,0.000,100.000
941.681,0.005,98.953
942.128,9.628E-4,99.779
942.574,0.000,100.000
943.021,0.000,100.000
943.467,0.000,100.000
943.914,0.000,100.000
944.360,0.000,100.000
944.807,0.002,99.434
945.253,0.000,100.000
945.700,0.000,100.000
946.147,0.000,100.000
946.593,0.001,99.661
947.040,0.000,100.000
947.486,0.000,100.000
947.933,0.000,100.000
948.380,0.000,100.000
948.826,0.000,100.000
949.273,0.000,100.000
949.720,0.000,100.000
950.167,0.000,100.000
950.613,0.000,100.000
951.060,0.000,100.000
951.507,0.000,100.000
951.954,9.172E-4,99.789
952.400,0.000,100.000
952.847,0.000,100.000
953.294,0.000,100.000
953.741,0.000,100.000
954.188,0.000,100.000
954.634,0.000,100.000
955.081,0.000,100.000
955.528,0.000,100.000
955.975,0.000,100.000
956.422,0.000,100.000
956.869,0.000,100.000
957.316,0.000,100.000
957.763,0.000,100.000
958.210,0.000,100.000
958.656,0.000,100.000
959.103,0.000,100.000
959.550,0.000,100.000
959.997,0.000,100.000
960.444,0.000,100.000
960.891,0.001,99.669
961.338,0.000,100.000
961.785,0.000,100.000
962.233,0.000,100.000
962.680,0.000,100.000
963.127,0.000,100.000
963.574,0.000,100.000
964.021,0.000,100.000
964.468,0.000,100.000
964.915,0.000,100.000
965.362,0.000,100.000
965.809,0.000,100.000
966.256,0.000,100.000
966.704,0.000,100.000
967.151,0.000,100.000
967.598,0.000,100.000
968.045,0.000,100.000
968.492,0.000,100.000
968.940,0.000,100.000
969.387,0.000,100.000
969.834,0.000,100.000
970.281,0.000,100.000
970.729,0.000,100.000
971.176,0.002,99.432
971.623,0.000,100.000
972.070,0.000,100.000
972.518,0.000,100.000
972.965,0.000,100.000
973.412,0.000,100.000
973.860,0.000,100.000
974.307,0.000,100.000
974.755,0.000,100.000
975.202,0.000,100.000
975.649,0.000,100.000
976.097,0.000,100.000
976.544,0.000,100.000
976.992,0.000,100.000
977.439,0.000,100.000
977.886,0.000,100.000
978.334,0.000,100.000
978.781,0.000,100.000
979.229,0.000,100.000
979.676,0.000,100.000
980.124,0.000,100.000
980.571,0.000,100.000
981.019,0.000,100.000
981.466,0.000,100.000
981.914,0.000,100.000
982.362,0.000,100.000
982.809,0.000,100.000
983.257,0.000,100.000
983.704,0.000,100.000
984.152,0.000,100.000
984.600,0.000,100.000
985.047,0.000,100.000
985.495,0.000,100.000
985.942,0.000,100.000
986.390,0.000,100.000
986.838,0.000,100.000
987.285,0.000,100.000
987.733,0.000,100.000
988.181,0.000,100.000
988.629,0.006,98.686
989.076,0.000,100.000
989.524,0.000,100.000
989.972,0.000,100.000
990.420,0.000,100.000
990.867,0.000,100.000
991.315,0.000,100.000
991.763,0.000,100.000
992.211,0.000,100.000
992.658,0.000,100.000
993.106,0.000,100.000
993.554,0.000,100.000
994.002,0.000,100.000
994.450,0.000,100.000
994.898,0.000,100.000
995.346,0.000,100.000
995.793,0.000,100.000
996.241,0.000,100.000
996.689,0.000,100.000
997.137,0.000,100.000
997.585,0.000,100.000
998.033,0.000,100.000
998.481,0.000,100.000
998.929,0.000,100.000
999.377,0.000,100.000
999.825,0.000,100.000
1000.273,0.000,100.000
1000.721,0.000,100.000
1001.169,0.000,100.000
1001.617,0.000,100.000
1002.065,0.000,100.000
1002.513,0.000,100.000
1002.961,0.000,100.000
1003.409,0.000,100.000
1003.857,0.000,100.000
1004.305,0.000,100.000
1004.753,0.000,100.000
1005.201,0.000,100.000
1005.649,0.000,100.000
1006.098,0.000,100.000
1006.546,0.000,100.000
1006.994,0.000,100.000
1007.442,0.000,100.000
1007.890,0.000,100.000
1008.338,0.000,100.000
1008.786,0.000,100.000
1009.235,0.000,100.000
1009.683,0.000,100.000
1010.131,0.000,100.000
1010.579,0.000,100.000
1011.027,0.000,100.000
1011.476,0.000,100.000
1011.924,0.000,100.000
1012.372,0.000,100.000
1012.820,0.000,100.000
1013.269,0.000,100.000
1013.717,0.000,100.000
1014.165,0.008,98.177
1014.614,0.000,100.000
1015.062,0.000,100.000
1015.510,0.000,100.000
1015.959,0.000,100.000
1016.407,0.000,100.000
1016.855,0.000,100.000
1017.304,0.000,100.000
1017.752,0.000,100.000
1018.200,0.000,100.000
1018.649,0.000,100.000
1019.097,0.000,100.000
1019.546,0.000,100.000
1019.994,0.000,100.000
1020.442,0.024,94.633
1020.891,0.000,100.000
1021.339,0.000,100.000
1021.788,0.000,100.000
1022.236,0.000,100.000
1022.685,0.000,100.000
1023.133,0.000,100.000
1023.582,0.000,100.000
1024.030,0.000,100.000
1024.479,0.000,100.000
1024.927,0.000,100.000
1025.376,0.000,100.000
1025.824,0.000,100.000
1026.273,0.000,100.000
1026.721,0.000,100.000
1027.170,2.633E-4,99.939
1027.618,0.000,100.000
1028.067,0.000,100.000
1028.516,4.753E-4,99.891
1028.964,0.028,93.697
1029.413,0.026,94.143
1029.861,0.000,100.000
1030.310,0.000,100.000
1030.759,0.000,100.000
1031.207,5.863E-4,99.865
1031.656,0.000,100.000
1032.105,0.000,100.000
1032.553,0.001,99.754
1033.002,0.000,100.000
1033.451,0.033,92.621
1033.899,0.000,100.000
1034.348,0.000,100.000
1034.797,0.000,100.000
1035.245,0.000,100.000
1035.694,0.000,100.000
1036.143,0.000,100.000
1036.592,0.002,99.593
1037.040,0.000,100.000
1037.489,0.000,100.000
1037.938,0.000,100.000
1038.387,0.000,100.000
1038.836,0.000,100.000
1039.284,0.023,94.926
1039.733,0.000,100.000
1040.182,0.003,99.354
1040.631,0.000,100.000
1041.080,0.004,99.159
1041.528,0.004,99.105
1041.977,0.026,94.143
1042.426,0.000,100.000
1042.875,0.000,100.000
1043.324,0.000,100.000
1043.773,0.000,100.000
1044.222,0.000,100.000
1044.671,0.000,100.000
1045.119,0.000,100.000
